Tiempo (s),Voltaje (V)
0.006533145904541,4.193478911900353
0.0101416110992431,4.236529363022735
0.020402193069458,4.177387569589686
0.0234532356262207,4.136070987550762
0.0306682586669921,4.173667500483255
0.0306682586669921,4.193747210855934
0.0407135486602783,4.078736380345962
0.0407135486602783,4.310512570451203
0.0507535934448242,4.256913928171952
0.0507535934448242,4.341782855826802
0.060821533203125,4.119091893328072
0.060821533203125,4.121207754421825
0.0711627006530761,4.38883021089904
0.0751810073852539,4.118218703418867
0.0816211700439453,3.921112158299455
0.0848069190979003,4.005180341866688
0.0917158126831054,4.068905817374052
0.0917158126831054,4.358520862256929
0.1020374298095703,4.37936113429009
0.1020374298095703,4.3760352521422
0.1120669841766357,4.238788754302462
0.1160285472869873,4.096285315902271
0.1221847534179687,4.4379033543079345
0.1274898052215576,3.9979353191257356
0.1322827339172363,4.018628573391445
0.1378109455108642,3.9679738204636035
0.142338752746582,3.8860868912511264
0.142338752746582,4.035341581514172
0.1527187824249267,4.178234512147988
0.1527187824249267,4.068657074872566
0.1628732681274414,4.158908562143448
0.1628732681274414,4.234676935354141
0.1732659339904785,4.424699425309232
0.1732659339904785,4.167158973049605
0.1837775707244873,4.198753729513644
0.190814733505249,4.063231060764258
0.1964387893676757,3.998265972445565
0.1964387893676757,4.331317682299609
0.203942060470581,4.281665030230383
0.203942060470581,4.366413692524223
0.2143115997314453,4.096741312069556
0.2143115997314453,4.091973348598001
0.2246463298797607,3.8833872607769595
0.2246463298797607,4.077076091023339
0.2350311279296875,4.071238562389277
0.2350311279296875,4.114351886897566
0.2465171813964843,3.9617044528657583
0.2465171813964843,4.093381193348754
0.257390022277832,3.976963690874772
0.2610888481140136,4.05638046029418
0.2655308246612549,4.030938113351901
0.2655308246612549,4.047851819868249
0.2756326198577881,3.939414823562981
0.2756326198577881,4.414339297479696
0.2860989570617676,4.128517829316711
0.2910716533660888,4.370858247788905
0.2963712215423584,4.008290927886324
0.3017306327819824,4.281799441934316
0.3067138195037842,3.9639144298384688
0.3122947216033935,4.173265600261785
0.3169920444488525,3.904527012463885
0.3169920444488525,4.03044489092093
0.3291449546813965,4.4156284908515735
0.3311629295349121,4.2927795176502235
0.3372604846954345,4.250488627602355
0.3372604846954345,4.212930678396141
0.3473782539367676,4.302596375697514
0.3473782539367676,4.318394836152587
0.3578026294708252,3.9651431116119342
0.3681063652038574,4.437091717548381
0.3701262474060058,3.9398962901726686
0.3786163330078125,3.9106282412188023
0.3786163330078125,4.386577810406155
0.3890972137451172,4.016088936585774
0.3911089897155761,4.347498297682434
0.3994359970092773,4.035498391950455
0.3994359970092773,3.9001664231996194
0.4097077846527099,4.318184792405585
0.4097077846527099,4.259882813223538
0.4222059249877929,4.232165546050639
0.4222059249877929,4.0854834205530235
0.4307048320770263,4.222840416401771
0.4412133693695068,4.06964824432449
0.4439136981964111,4.095611101390819
0.4514288902282715,3.950665984423615
0.4575610160827636,4.167971747264639
0.4616651535034179,4.104097223649955
0.4717240333557129,3.9332491627982886
0.4717240333557129,4.155627104849913
0.4821665287017822,4.194116002569077
0.4821665287017822,4.184879772695575
0.4927778244018554,4.200963665997956
0.4947948455810547,4.2598433785638905
0.5030720233917236,3.9792534564315103
0.5030720233917236,4.06711369013441
0.513211727142334,4.060370392013304
0.5173699855804443,4.095258071805128
0.5232489109039307,4.33728126178935
0.5264556407928467,4.26687061150949
0.5334451198577881,4.286815479147857
0.5373907089233398,4.292428937317946
0.5435247421264648,3.891418476947469
0.5435247421264648,4.455210667323667
0.5537109375,4.070030256414072
0.5593042373657227,4.219979488470717
0.5674772262573242,3.946827287967467
0.5739696025848389,4.110856293760789
0.5739696025848389,3.9297485810246178
0.5863165855407715,3.99457541746584
0.5913188457489014,4.22807631601215
0.5944480895996094,4.226544718760275
0.5944480895996094,4.417537667834095
0.6046116352081299,3.9252227215115796
0.6046116352081299,4.380686882306164
0.6150479316711426,4.188411676614972
0.6150479316711426,4.101695732504545
0.6276595592498779,4.257433594392878
0.6340065002441406,3.9234956816307456
0.6377556324005127,4.375302196397556
0.6377556324005127,4.353210769614242
0.6462836265563965,4.226700185835207
0.6462836265563965,4.203025000139489
0.6568799018859863,4.378405811486609
0.6568799018859863,4.2910694424279745
0.6685836315155029,4.098991857063541
0.6685836315155029,4.2883125560621345
0.6774616241455078,4.439032344186971
0.6774616241455078,4.341424706366009
0.6878437995910645,3.9231901482656255
0.6913611888885498,4.0496423894849345
0.6978733539581299,3.982815578578096
0.7063190937042236,4.0339217295310705
0.7100694179534912,4.0699830195092686
0.7183163166046143,4.104562216490583
0.7183163166046143,4.1578505459922805
0.728527307510376,4.18581696993615
0.7351224422454834,4.3484300643028595
0.7406771183013916,4.3921676901723465
0.7406771183013916,4.1211722458519375
0.7487308979034424,4.373363460672294
0.7487308979034424,4.086642712442123
0.7590932846069336,3.991929024780629
0.7590932846069336,4.067301036583557
0.7693984508514404,4.3017412588194
0.7693984508514404,4.000265999944427
0.7797551155090332,4.041194748052692
0.7797551155090332,4.416228266858309
0.7797551155090332,4.351469567681389
0.7941169738769531,4.354186954374533
0.7941169738769531,4.13358208935847
0.8000869750976562,4.028816013289562
0.8000869750976562,4.212320737134095
0.8104100227355957,4.415420496358849
0.8104100227355957,3.8435949268242333
0.8205554485321045,4.1028939555922035
0.8205554485321045,4.237276791171228
0.8306839466094971,4.064145432503235
0.8306839466094971,3.926436282842302
0.8410680294036865,4.045368111560558
0.8410680294036865,3.9110291598720943
0.8544347286224365,4.162795219477662
0.8568806648254395,4.131783307669815
0.8672912120819092,4.022140277152837
0.8722798824310303,3.9028405366034127
0.8752167224884033,4.104676429168199
0.883427619934082,3.993240279761522
0.8863925933837891,4.284795741090828
0.8919429779052734,4.340791016365903
0.8919429779052734,4.283185963113432
0.9021735191345216,4.142102708209777
0.9076941013336182,4.157974186357168
0.9138200283050536,4.046138152509175
0.9138200283050536,4.199725227711875
0.9225504398345948,4.022292440777396
0.9292466640472412,3.900892903397209
0.9321811199188232,4.301205806424793
0.9389767646789552,4.030520385309257
0.9423816204071044,4.226715290358031
0.9525606632232666,4.129674494915664
0.9525606632232666,4.298852584003043
0.9626262187957764,4.322407411928262
0.9626262187957764,4.15026374565829
0.9727671146392822,4.182218386841798
0.9727671146392822,3.9945062980554478
0.9727671146392822,4.2326274032289435
0.9831545352935792,4.06704952439822
0.9831545352935792,4.0120148659936365
0.9942994117736816,4.113129279191132
0.9963588714599608,4.290040207894288
0.9993665218353271,4.208930597865937
1.0036520957946775,4.183865158885468
1.0100116729736328,4.428229910817622
1.0137152671813965,4.082677847240465
1.0137152671813965,3.9157936706151246
1.0219218730926514,4.256325469470006
1.0250389575958252,3.9062910230298242
1.0250389575958252,4.083343812322339
1.0340652465820312,4.394917774539801
1.0376653671264648,4.227103999853116
1.0376653671264648,4.239986618574025
1.0473110675811768,4.072858061137894
1.0473110675811768,4.322949696849794
1.0541670322418213,4.1794905046209205
1.0541670322418213,4.256129651134715
1.0541670322418213,4.339259965094528
1.066398859024048,4.315083752526971
1.066398859024048,4.004393012000725
1.074566125869751,3.9106729539894243
1.074566125869751,4.175273902901048
1.080671787261963,4.178362039816075
1.0847680568695068,4.305740245151634
1.0886101722717283,4.070571897298373
1.0949602127075195,4.26343805394175
1.0949602127075195,4.01762862064186
1.1011993885040283,4.304222462722288
1.1074373722076416,4.278870495402326
1.1074373722076416,4.2500755972011
1.1164164543151855,4.074841120466797
1.1164164543151855,4.468000254909249
1.1250600814819336,4.376250649753122
1.1290762424468994,3.886862389867174
1.1290762424468994,4.317464617573979
1.1362109184265137,4.19172763807335
1.1362109184265137,4.225130261714257
1.147470474243164,3.977321889981383
1.147470474243164,4.299218758997306
1.1602351665496826,4.0124000870386975
1.1662533283233645,4.23656491635755
1.1682589054107666,3.955787048117678
1.1720631122589111,4.358844484852434
1.176732063293457,4.267269016140793
1.176732063293457,4.252436580311475
1.1871864795684814,4.278939350954225
1.1871864795684814,4.268970656394025
1.1925292015075684,4.3558711419467455
1.1975533962249756,4.193133935586401
1.1975533962249756,4.0137853746922625
1.2061221599578855,4.006504486750178
1.2119779586791992,3.9172884335902687
1.213981866836548,4.19815634654729
1.218041181564331,4.115174774981895
1.218041181564331,4.116843760734677
1.218041181564331,4.251551614633949
1.228551149368286,4.022708435239376
1.228551149368286,4.30202773194731
1.2390313148498535,4.11362351389785
1.2390313148498535,3.895396620145361
1.2390313148498535,4.081340609154591
1.2496225833892822,4.216349893411729
1.2496225833892822,4.083927666682962
1.2496225833892822,4.0039154318829855
1.2600042819976809,4.183207034666263
1.2600042819976809,3.9100379415485187
1.2600042819976809,4.319980930172749
1.2701337337493896,4.27004736048467
1.2701337337493896,4.267676711940459
1.2803330421447754,4.219071865981249
1.2803330421447754,4.283894426852848
1.2803330421447754,3.875211746521552
1.2905035018920898,4.174366650618626
1.2925136089324951,3.9538129197736724
1.3006086349487305,4.165929541950237
1.3006086349487305,4.119207194567658
1.3006086349487305,4.023329266469106
1.310643434524536,3.935764191123146
1.3137552738189695,4.021415713488996
1.3209147453308103,3.9589617824449714
1.322922945022583,4.104211663670729
1.3249313831329346,4.0717588607364945
1.3314666748046875,4.465243839869645
1.3314666748046875,4.1647439215505
1.3314666748046875,4.223958698220436
1.3415248394012451,3.8875594272188914
1.3415248394012451,4.27014477848392
1.3515527248382568,4.37673158110855
1.3515527248382568,4.301776899619974
1.3515527248382568,4.325607060080931
1.3636679649353027,4.305237851278442
1.3678474426269531,4.26709963443881
1.3719792366027832,3.916043344621302
1.3719792366027832,4.1513584284055955
1.380368947982788,4.38358683704657
1.382199764251709,4.263914234988758
1.382199764251709,4.365996682972687
1.3927621841430664,3.9934537101551846
1.3947722911834717,4.219594251191642
1.3947722911834717,4.067080105258577
1.40289044380188,4.1304866053910345
1.40289044380188,4.323162481216342
1.40289044380188,4.250721438556148
1.4159371852874756,4.418723620730585
1.4174785614013672,4.371746847913584
1.4236469268798828,3.9750656850412174
1.4256579875946045,4.139801739323012
1.4256579875946045,3.9770343742538734
1.4338595867156982,4.401595145241208
1.441077709197998,4.335666265067866
1.4441115856170654,4.339674779314802
1.4441115856170654,4.237697591086101
1.454265594482422,3.8662326017957565
1.454265594482422,3.9362524928081317
1.454265594482422,4.1498996127343215
1.464486837387085,4.224501658910449
1.464486837387085,4.232764641064054
1.4745783805847168,3.92907571565674
1.4745783805847168,4.437222267603225
1.4745783805847168,4.005401441389533
1.484935998916626,4.1239654807875885
1.484935998916626,4.299361618652321
1.495073318481445,4.068789993323452
1.4981818199157717,3.9048540511908767
1.4981818199157717,4.083544291163417
1.5052063465118408,4.173221324689675
1.5052063465118408,4.08927737481839
1.5052063465118408,4.222958496709309
1.5176169872283936,4.051387950673746
1.5176169872283936,4.088161087122828
1.5256659984588623,4.104224098463799
1.5276715755462646,4.250197522698298
1.5276715755462646,4.0367010715956555
1.535987377166748,4.30121176741341
1.535987377166748,4.104293033695022
1.546428680419922,3.9612807165034147
1.546428680419922,3.9364982939747235
1.546428680419922,4.182028514527876
1.5585763454437256,4.368726059725047
1.5585763454437256,4.005483646902787
1.5585763454437256,4.160686206133021
1.5669031143188477,4.32509718400187
1.5669031143188477,4.018717780572027
1.5770561695098877,4.220008273328164
1.5770561695098877,4.107492487089218
1.5770561695098877,4.02666184994571
1.587423324584961,3.9400896309986853
1.5929315090179443,3.9897833467846655
1.5929315090179443,4.264082952077222
1.5976989269256592,4.129853228258251
1.5976989269256592,4.160816594289485
1.607865571975708,4.052029930005655
1.607865571975708,4.134929042922076
1.607865571975708,4.2016585445729815
1.6182301044464111,4.35724647987213
1.6182301044464111,4.2815348864651614
1.628429651260376,4.384045206866729
1.628429651260376,4.177129830091572
1.628429651260376,4.215367682943398
1.638603448867798,4.104245181566874
1.638603448867798,4.041129140727271
1.6487507820129397,4.304241760295639
1.6507558822631836,4.084531876849132
1.65899658203125,4.152031235975043
1.6597309112548828,4.007170289943256
1.6597309112548828,4.158463895630852
1.6692280769348145,4.181024385975195
1.6692280769348145,4.305543548577618
1.680208444595337,3.9598042104564612
1.683851957321167,4.11571214732112
1.6894922256469729,4.36878948253836
1.6931431293487549,3.967990676065743
1.6996731758117676,4.1423286552732925
1.7002856731414795,4.018735989738808
1.7044363021850586,4.019417135747705
1.7098968029022217,4.0573192234336535
1.7139179706573486,4.359409346100072
1.7200255393981934,4.318266245093037
1.7200255393981934,4.135603212910245
1.730123519897461,3.9169299924486545
1.730123519897461,4.28472184100846
1.730123519897461,3.9138271521357044
1.7429428100585938,4.258361834534248
1.746959924697876,4.265132066739351
1.7507383823394775,3.91327402499401
1.7507383823394775,4.23219438428549
1.7610294818878174,4.379186725595927
1.7610294818878174,4.179828456401795
1.7712831497192385,4.2609237649016
1.7712831497192385,4.281880627863955
1.7712831497192385,4.118887904537172
1.782217025756836,4.002615411643523
1.782217025756836,4.118415485561773
1.7933392524719238,3.9855492274170046
1.7933392524719238,4.029535094765961
1.801870584487915,4.095602387635166
1.801870584487915,4.1979479445391075
1.8130598068237305,4.283799680894732
1.8130598068237305,4.291507951026906
1.8227159976959229,4.092639282573123
1.8227159976959229,4.257511397359629
1.8227159976959229,4.237473536453847
1.8335752487182615,4.25384414348991
1.8335752487182615,4.15839581499124
1.843390226364136,4.12542547673943
1.843390226364136,4.183823062214717
1.853414535522461,4.379855917813912
1.853414535522461,4.357330134489524
1.853414535522461,4.232432360015541
1.863483190536499,3.996835378425448
1.863483190536499,4.4381067847184985
1.8738880157470703,3.9631173938555664
1.8738880157470703,3.8910197758813454
1.8834831714630127,3.919727905593012
1.8834831714630127,3.990412634789632
1.8834831714630127,4.280931747571321
1.8935532569885252,4.238822472447039
1.8935532569885252,4.387283621057667
1.9063286781311035,4.3178468790607
1.9063286781311035,3.914136095285207
1.9153413772583008,4.162043983292676
1.9153413772583008,4.423704682700967
1.924454689025879,4.375564765273095
1.924454689025879,4.267342059974007
1.9347639083862305,4.250285103974256
1.935863733291626,4.146801891024082
1.935863733291626,4.410334122112836
1.9453186988830569,4.001345339996822
1.9453186988830569,4.019059109421285
1.9552428722381592,4.027712327198673
1.9552428722381592,4.0700470479299105
1.965362548828125,3.9281565421624163
1.965362548828125,4.063223516682492
1.965362548828125,4.427723794570678
1.9754364490509035,4.346816857479709
1.9754364490509035,4.34866298332247
1.9854679107666016,4.177824000927805
1.9854679107666016,4.031739771598575
1.995652675628662,3.8865917025667525
1.9976599216461184,4.053240898875618
1.9976599216461184,4.190877594488371
2.0057947635650635,4.197132480357936
2.0057947635650635,4.288626787904688
2.016127347946167,3.981373283439917
2.016127347946167,3.9429805275144223
2.0261924266815186,3.899879551190802
2.0261924266815186,4.205778215150498
2.0261924266815186,4.003921198969773
2.036346435546875,4.184852875928076
2.036346435546875,4.372895081717109
2.046762704849243,4.030957577690541
2.046762704849243,4.333855193353527
2.0575437545776367,4.059892289198943
2.0575437545776367,4.250542411571007
2.067235946655273,4.134135592679382
2.067235946655273,4.217597656408331
2.077308654785156,4.246500422763983
2.077308654785156,4.2604183497812995
2.077308654785156,4.0282994077788405
2.0879738330841064,4.109792280522542
2.09368634223938,3.8819611760987693
2.097442150115967,3.887095696730887
2.097442150115967,3.984970685139913
2.097442150115967,4.089375113558436
2.1082143783569336,4.04858169857523
2.1082143783569336,3.988556341381132
2.1177072525024414,4.10206795037249
2.1177072525024414,3.9814891577078804
2.127793073654175,4.228403090508272
2.127793073654175,3.9198128867993414
2.127793073654175,4.193611952226881
2.1379427909851074,4.0173383806841665
2.1379427909851074,3.883476783184368
2.1479854583740234,4.364715574061796
2.1479854583740234,4.303148153124812
2.1582510471343994,4.1504005877579635
2.1582510471343994,4.021640106906699
2.1582510471343994,4.158548372076312
2.168585777282715,4.174981616848421
2.168585777282715,4.092889299527251
2.1786606311798096,4.340485527239229
2.1786606311798096,4.148514417057112
2.1786606311798096,3.9709812157286684
2.188995361328125,4.373050818399787
2.193758964538574,4.019721175592257
2.19921875,4.1937883031589775
2.19921875,4.216035712803107
2.19921875,4.077182970703352
2.2092525959014893,4.03110429326148
2.2092525959014893,3.9946739998879206
2.219564199447632,4.447098736624986
2.219564199447632,4.376825037735663
2.229581117630005,4.1096573319676075
2.229581117630005,4.041601806442696
2.229581117630005,4.105336453791922
2.239636182785034,4.013436547651744
2.239636182785034,4.389732633393138
2.2502992153167725,4.168109717553813
2.256248950958252,4.34151047903573
2.2601773738861084,3.986705301548084
2.2601773738861084,4.342111679818759
2.270336389541626,4.077539044369462
2.270336389541626,4.154526984226767
2.270336389541626,4.218917396794072
2.280508518218994,4.401979713870618
2.280508518218994,3.9294272362402083
2.293771505355835,4.055020170243287
2.293771505355835,3.9393280397972226
2.300833225250244,4.088097987390668
2.300833225250244,3.936578170112702
2.3133134841918945,4.049191537141328
2.3172824382781982,3.9987651759218026
2.3211402893066406,4.110127156393979
2.3211402893066406,3.8993370914756476
2.3312461376190186,4.0146701222520464
2.334559202194214,4.132861088773402
2.34144926071167,4.183083191780358
2.3467066287994385,4.305639424186219
2.3514692783355717,4.047376627749141
2.3514692783355717,4.243550363249009
2.3514692783355717,4.005337475646148
2.361558198928833,4.121629514523384
2.361558198928833,4.443984140831607
2.372186183929444,4.256761717921842
2.372186183929444,4.262782909400967
2.382253408432007,3.935281363968556
2.382253408432007,4.043316832410687
2.393672466278076,4.006765346456032
2.393672466278076,4.260842817329302
2.4027416706085205,4.32258824936695
2.4090287685394287,4.021201872076549
2.4162685871124268,3.929795021289245
2.4220962524414062,4.4161072421255785
2.4290921688079834,4.00291837324621
2.4321095943450928,4.181923389113184
2.4321095943450928,4.3537497326253405
2.4422218799591064,3.9062840662801044
2.4422218799591064,4.3064405626573565
2.4523627758026123,4.242886025445465
2.4523627758026123,4.014582545976417
2.462554693222046,4.175030342766981
2.462554693222046,4.2338016717734
2.4725897312164307,4.276382848558534
2.4725897312164307,4.251673669265612
2.4725897312164307,4.192250220046507
2.482713222503662,4.19821880285908
2.491084575653076,4.320836384364876
2.4938759803771973,3.899914910735403
2.4938759803771973,4.171240650089456
2.5050110816955566,4.327741106952944
2.5050110816955566,4.047008026871796
2.5133326053619385,4.0240903922481746
2.5133326053619385,3.9245699887585457
2.5133326053619385,3.902787027488263
2.5342462062835693,3.8700619728293195
2.5443460941314697,4.249328257530692
2.554726839065552,4.004323216013274
2.554726839065552,3.892554279832979
2.5648627281188965,3.911775012533046
2.5648627281188965,4.245891737619709
2.5751988887786865,3.9936201532824787
2.5751988887786865,4.262634645387514
2.5751988887786865,4.207112370221513
2.5854671001434326,3.9625925563339264
2.5854671001434326,4.450553661732805
2.5938940048217773,4.305887125653266
2.5956673622131348,4.034969761945409
2.5956673622131348,4.224979341489126
2.605888843536377,3.993189326346259
2.608613967895508,4.425377131731785
2.616023063659668,4.348857736288128
2.616023063659668,4.259007898122681
2.616023063659668,4.330011187220558
2.626267194747925,4.3099662819494675
2.626267194747925,4.329652344821355
2.6363251209259038,4.415201126073537
2.6363251209259038,3.898543200427576
2.6468451023101807,3.990135015656818
2.6468451023101807,4.0945991993018955
2.6569716930389404,3.8703730130650134
2.6569716930389404,4.317587037789704
2.6569716930389404,4.282495353802105
2.6669921875,4.330635245994248
2.6669921875,4.47559202376473
2.677504062652588,3.9462655815394174
2.6795122623443604,4.260909667309282
2.6795122623443604,4.2966328027773795
2.6876821517944336,4.388419795578722
2.69404935836792,4.0400938725769
2.697810649871826,4.139183507544424
2.697810649871826,4.13071373536999
2.707871913909912,4.275843447886605
2.707871913909912,4.008217675366899
2.718210220336914,3.9855561995354
2.718210220336914,4.185005402713122
2.7285945415496826,4.078148334139779
2.7285945415496826,3.9824859810351314
2.7285945415496826,4.320708610665495
2.738755941390991,3.904476706337051
2.738755941390991,4.213422986836014
2.748776435852051,4.172998268635113
2.748776435852051,3.8495527584686386
2.758951425552368,4.070887780390772
2.758951425552368,3.958559535688985
2.769062757492065,4.3556360074815075
2.769062757492065,3.945312832204981
2.779402017593384,4.05667243396752
2.779402017593384,4.3279758211509
2.779402017593384,4.311869825284315
2.789518356323242,3.9634367046518664
2.7942159175872803,4.296751141744176
2.799630880355835,4.110106397660733
2.799630880355835,4.072862817758098
2.809650421142578,4.271143298418711
2.809650421142578,4.3277895700345645
2.819913864135742,4.04531541418897
2.819913864135742,4.376930083145925
2.830108880996704,4.214301251890127
2.830108880996704,4.256718822889418
2.8401763439178467,4.359580880685084
2.8401763439178467,3.9690694620967033
2.8401763439178467,4.05975363317902
2.8502814769744877,4.134631392737823
2.8502814769744877,4.291451673665571
2.8621902465820312,4.147636031883605
2.8642027378082275,4.0666006045548855
2.8705413341522217,4.107136077267411
2.8705413341522217,4.177716532267831
2.8806798458099365,4.012553196515644
2.8806798458099365,3.954090948959601
2.890988826751709,4.253422542522954
2.894322395324707,4.299314958326005
2.9014248847961426,3.9092605926108455
2.911439180374145,4.186568839923806
2.9134538173675537,4.155104402376748
2.9277994632720947,4.215041368212815
2.933575391769409,4.314588814902551
2.933575391769409,4.041497508204434
2.941600561141968,4.265817287071654
2.951975584030152,4.126965535630861
2.9623265266418457,4.134896245734858
2.9623265266418457,3.9930124183175586
2.972368001937866,4.165208386294821
2.9778668880462646,4.0910311501677645
2.9824378490448,4.118062337510062
2.9945547580718994,4.30715009709419
2.9970529079437256,4.024064907965937
3.004882335662842,3.9748829095211886
3.0127549171447754,4.096865004590198
3.015953540802002,3.9734963064878968
3.0230250358581543,4.0653100391785975
3.027583360671997,4.105258745178171
3.0332047939300537,4.319488724777883
3.043335437774658,4.240962169545251
3.043335437774658,3.9322269997125163
3.0535571575164795,4.299623067837739
3.0535571575164795,3.967273451240581
3.063836097717285,4.379945784072585
3.063836097717285,4.0598482278771195
3.0735435485839844,4.306313299477784
3.0735435485839844,4.3365770424585826
3.0835907459259038,4.211250676863074
3.0835907459259038,4.076402788150005
3.0948500633239746,4.171336484417119
3.0948500633239746,4.360349937949032
3.104060411453247,4.213560951180651
3.104060411453247,3.984802105379869
3.1142220497131348,4.005126212267095
3.1142220497131348,4.334024769685358
3.1142220497131348,4.204017780614397
3.1243438720703125,4.251172097669617
3.1243438720703125,4.283089325500671
3.1343796253204346,4.055307693193154
3.1343796253204346,3.8671696738595482
3.1443941593170166,4.223516422299543
3.1443941593170166,4.295515421096393
3.1545331478118896,4.407165456369669
3.1545331478118896,4.184262928811335
3.1645779609680176,4.297093314521174
3.1645779609680176,3.9773020932139005
3.1645779609680176,4.335760007077214
3.174774646759033,4.0991023174381604
3.174774646759033,3.8969350624046686
3.174774646759033,4.3273279487884535
3.1848855018615723,4.300243721865059
3.1848855018615723,4.133297583941433
3.194956064224243,4.025384244303895
3.194956064224243,4.094815332815369
3.194956064224243,4.308389505917174
3.205174446105957,4.223726059964835
3.205174446105957,4.084604230002347
3.205174446105957,4.198600297642048
3.2152516841888428,3.9602923131869705
3.2152516841888428,4.262904859368534
3.22558331489563,4.239883297881183
3.22558331489563,3.855650594432563
3.232442617416382,4.165605526966814
3.2357254028320312,3.9905000495366294
3.241506099700928,3.9556722312369845
3.245778083801269,3.951136152807599
3.245778083801269,4.324199671828693
3.255866289138794,4.307959151933753
3.255866289138794,4.277364067869904
3.255866289138794,4.25917015442388
3.2659122943878174,3.9459596175200096
3.272669553756714,4.103313369202336
3.2765350341796875,4.001614966973241
3.2765350341796875,4.251317466186551
3.2861127853393555,4.237368887805387
3.2861127853393555,4.1693952016174975
3.294862985610962,3.9756803881940392
3.296616554260254,4.2211804536252835
3.296616554260254,3.9410590265698042
3.3069911003112797,4.151893800287068
3.3113973140716557,4.209629884626938
3.317049264907837,3.9375841224217827
3.317049264907837,4.111566591553364
3.317049264907837,4.0373733458945695
3.327508449554444,3.9948893566448946
3.327508449554444,4.135818376723194
3.327508449554444,4.033486556710478
3.3375906944274902,4.325653334243476
3.3375906944274902,4.201680880429925
3.348524570465088,4.157812954035712
3.3528192043304443,3.9976534049397183
3.354830503463745,4.119614803635318
3.3580825328826904,4.216315852167222
3.3580825328826904,4.361305487485208
3.368163108825684,3.883341378311164
3.368163108825684,3.9134053610369026
3.37833571434021,4.019760640431333
3.37833571434021,4.002731137581866
3.388427257537842,3.927601413794744
3.388427257537842,3.9482589604254836
3.394784450531006,4.057461329261209
3.398566722869873,4.234599209160961
3.398566722869873,4.326950547620003
3.408579111099243,4.246045520007906
3.408579111099243,4.188548555505574
3.4189157485961914,4.3919377078604285
3.4189157485961914,4.017490408026639
3.4189157485961914,4.177573591642347
3.429085493087769,4.132062902362393
3.429085493087769,4.37157062022711
3.4395697116851807,4.075782494059563
3.4395697116851807,4.447133989626036
3.4395697116851807,4.132765766121509
3.449585437774658,4.040600808757277
3.449585437774658,3.9457820410180013
3.459755182266236,4.0097758932559096
3.459755182266236,4.273733342798613
3.4697959423065186,4.092071886457716
3.4697959423065186,4.136841545410982
3.4697959423065186,3.9334795890034218
3.4798359870910645,3.9309387489422254
3.4798359870910645,4.081742227004036
3.4900214672088623,3.855865504171302
3.494840383529663,4.424782458018282
3.50056266784668,4.109106152737355
3.50056266784668,3.947831408360975
3.5107643604278564,4.070697245469185
3.5208535194396973,4.1483996940342776
3.5208535194396973,3.876163310322665
3.5309207439422607,4.321582593283171
3.5309207439422607,3.935791065495955
3.5309207439422607,4.452084742073198
3.541642189025879,3.92433325768435
3.547321319580078,4.251238136710184
3.5520308017730717,4.147480033308171
3.5520308017730717,4.3537985984808
3.5623929500579834,4.066249021462495
3.5623929500579834,4.408273704385704
3.5724987983703613,4.184895096556315
3.5724987983703613,4.064607407129331
3.582844018936157,3.9540112115333215
3.582844018936157,4.213639613995443
3.594196319580078,4.336981338631123
3.594992160797119,4.10442367095559
3.6030349731445312,4.14181196075292
3.606510639190674,3.8502674351855015
3.606510639190674,4.368119384641011
3.613888502120972,4.249667907922258
3.613888502120972,4.223585178555346
3.624225854873657,4.083905998453226
3.624225854873657,4.180952859410297
3.6371102333068848,3.938412827147399
3.6391193866729736,4.204271949521608
3.64581561088562,4.177161047956314
3.6477904319763184,4.026822340825953
3.654280662536621,4.025950139078089
3.654280662536621,4.389962204739447
3.654280662536621,4.083323034361644
3.6645219326019287,4.384238853506617
3.6645219326019287,4.130985175909901
3.6750991344451904,4.135009608507326
3.6750991344451904,4.109168644100713
3.6750991344451904,4.3764959951780416
3.6857428550720215,4.444511299724646
3.694899082183838,4.087882096156745
3.696910858154297,3.9444405817967354
3.704988479614258,4.3151684284277705
3.704988479614258,4.172538372227965
3.704988479614258,4.308135709103537
3.716463804244995,4.438284875687955
3.716463804244995,4.146615044237769
3.72621488571167,4.123726722153274
3.72621488571167,4.256455780603771
3.7356443405151367,4.189723918882855
3.7356443405151367,4.299253088806248
3.7356443405151367,4.348000636194195
3.745693683624268,4.179954999654277
3.745693683624268,4.044155305934405
3.755798578262329,4.214072497535101
3.755798578262329,4.014822071752501
3.755798578262329,2.3424573087463783
3.765848398208618,2.494743220300891
3.765848398208618,3.5104415704197693
3.7783586978912354,5.798551500967171
3.784440279006958,3.082472004144979
3.7864773273468018,5.48086004855052
3.795154094696045,3.9631806728578582
3.79885458946228,2.901828873099682
3.802884101867676,4.123259812892661
3.806859970092773,3.84437446293711
3.806859970092773,4.529464828071447
3.806859970092773,5.050037069033269
3.817205667495728,3.79128310338709
3.817205667495728,5.496289303261715
3.827214956283569,3.565815358349715
3.827214956283569,4.806390502678747
3.8363091945648193,3.7326849969520373
3.837340831756592,3.9771188236942656
3.847458600997925,4.646081663998292
3.8508596420288086,4.2278661326895435
3.857491254806519,4.11579847431203
3.857491254806519,4.385337298041608
3.867480993270874,4.259030610668332
3.867480993270874,4.081717700329924
3.87770414352417,4.837957653650854
3.884098768234253,5.364996734955752
3.8881969451904297,5.0818188427519635
3.8953239917755127,7.1280391145951265
3.900728702545166,4.7096101068894916
3.908395290374756,4.089776071574466
3.91318154335022,4.496383836081059
3.91849422454834,4.44083505310945
3.930762529373169,5.093431877329719
3.9348108768463135,4.6450107597563965
3.938990831375122,7.0476213693123935
3.9515247344970703,4.388854688661871
3.9595344066619873,3.2686371524258604
3.962296962738037,4.212617234866718
3.969880342483521,4.4872217236770595
3.969880342483521,4.964397992109461
3.979952335357666,5.828583271849279
3.979952335357666,4.441947466678562
3.9899744987487793,5.3696393887656795
3.995729923248291,5.7653791985502485
4.000046253204346,6.102696872462131
4.003851652145386,4.614653478632941
4.010260820388794,4.38042574653016
4.010260820388794,4.136848370307663
4.020507097244263,5.647350838273714
4.023446559906006,4.982082833411013
4.023446559906006,5.8400203237294575
4.030705690383911,5.120752052815959
4.030705690383911,5.002637730113529
4.040738344192505,3.7257825590486755
4.040738344192505,5.030015456779752
4.050832509994507,5.336025802886728
4.050832509994507,5.004661427502812
4.061009883880615,5.64672437780025
4.061009883880615,4.9210930790049945
4.071401596069336,6.529316426212205
4.071401596069336,3.9811219323987275
4.071401596069336,3.6029274711084405
4.084918975830078,4.7227542999339995
4.086133003234863,5.533262453785859
4.092225074768066,4.0064535932639345
4.0959577560424805,4.260097091957227
4.102401494979858,3.33984409397168
4.102401494979858,5.0450846660194495
4.102401494979858,4.050264696640173
4.112756013870239,3.1102211638320374
4.112756013870239,3.726234731720512
4.122913599014282,3.793199072297596
4.122913599014282,4.393830609216234
4.132951021194458,4.769070242307759
4.132951021194458,3.821022734295562
4.132951021194458,3.5841781199973024
4.145435810089111,3.60377364995332
4.145435810089111,3.4480429545177036
4.153017520904541,3.2301829856258695
4.153017520904541,4.3980384995171695
4.153017520904541,2.784250045601596
4.16307258605957,2.305094705299865
4.16307258605957,4.145141409291921
4.173200845718384,4.28248795392137
4.173200845718384,3.326891592574904
4.173200845718384,4.398593883200842
4.183220863342285,4.165473710418054
4.183220863342285,3.458282805032936
4.183220863342285,3.344838974325094
4.196172475814819,2.989692566200229
4.196172475814819,2.3126188773170147
4.203421831130981,3.6814032654760633
4.203421831130981,2.72958825242047
4.203421831130981,2.158823561458806
4.216393947601318,3.71876251735526
4.216393947601318,2.605970888048022
4.225008010864258,3.759580930412703
4.225008010864258,3.843638780442018
4.236089468002319,2.695073677311782
4.237952947616577,2.3986331074100766
4.244339227676392,3.8312299774731278
4.244339227676392,3.159093414044928
4.254533052444458,2.7045415560748243
4.254533052444458,2.0289571145504377
4.254533052444458,2.227528596723544
4.2648842334747314,1.237205520500769
4.2648842334747314,2.539289880258201
4.275143146514893,2.8244402667111688
4.275143146514893,2.781393922324548
4.285273790359497,0.9696099741594705
4.285273790359497,3.6393459785971274
4.29806661605835,1.4763322104916363
4.29806661605835,3.2077866657496017
4.305670976638794,2.733319021408412
4.305670976638794,4.387282475821628
4.315738916397095,2.4513409627585925
4.315738916397095,1.6910331479460043
4.326080083847046,1.7943346107883704
4.326080083847046,2.1061850645221902
4.336392641067505,0.9966896917784274
4.336392641067505,1.047013784994611
4.346803188323975,1.1620317468819987
4.346803188323975,1.0471780721021682
4.357356071472168,1.609600938827102
4.357356071472168,0.9963179594637015
4.367522478103638,2.6096906219974643
4.367522478103638,0.7990033984021119
4.377647876739502,3.037602616954328
4.377647876739502,2.6829762843350187
4.387927055358887,4.493831345881617
4.387927055358887,2.977682859731091
4.398307800292969,2.924526147649829
4.398307800292969,3.264095917613345
4.398307800292969,3.1242445602242115
4.408526182174683,2.144942064187057
4.418972969055176,1.0064614065025017
4.421021461486816,3.899004125918998
4.421021461486816,1.0955664135809533
4.42926549911499,2.3416726978367914
4.42926549911499,3.4834701626747435
4.4396445751190186,2.8528190229618486
4.4396445751190186,2.9474745914830978
4.449769735336304,4.522627948898453
4.449769735336304,2.2898006557693416
4.460251569747925,3.2312110651634987
4.460251569747925,5.368377808064856
4.460251569747925,3.45585108087033
4.470580339431763,4.0380285632399335
4.470580339431763,5.238894981068315
4.480740308761597,1.4841705935601548
4.48237156867981,3.027311448559925
4.48237156867981,3.1708303025069573
4.491181135177612,1.8514925605594619
4.497431039810181,2.857479839297674
4.501198053359985,3.3744391155670215
4.503211975097656,2.4301508435152175
4.503211975097656,2.4451966122863045
4.511451959609985,2.8452149189140306
4.511451959609985,2.8897161513955236
4.511451959609985,2.3417612803270065
4.521790266036987,3.2367872447352624
4.521790266036987,6.17367224132944
4.528079748153687,4.45640745088461
4.531973361968994,2.825837431859544
4.531973361968994,4.3242948346388035
4.5436341762542725,2.900270269891709
4.545637369155884,3.933213897985179
4.554800987243652,3.040434231556749
4.557374238967896,3.278331408692133
4.562830686569214,3.7516467290703246
4.562830686569214,4.281646813885391
4.562830686569214,3.956939169367568
4.5729591846466064,3.0341197753733025
4.5729591846466064,3.8617063620604357
4.583216905593872,3.202441305611336
4.586632490158081,4.128099216460514
4.589708566665649,6.831446464366498
4.595550060272217,5.51290745147071
4.596566915512085,3.4759705699490993
4.596566915512085,4.418231520822863
4.603790283203125,5.918304841584058
4.603790283203125,4.6351565495294675
4.614020347595215,4.39143601833114
4.614020347595215,4.076811779860132
4.614020347595215,6.574751076448461
4.624161720275879,4.668963639501127
4.624161720275879,3.852355155980825
4.624161720275879,4.7032114003481045
4.634667873382568,5.53115092828426
4.634667873382568,3.9060578627461
4.645000457763672,5.11086444786386
4.645000457763672,4.674990458228068
4.645000457763672,5.329009892699136
4.655287265777588,4.058890112826173
4.655287265777588,4.478725651522634
4.655287265777588,5.334532207614554
4.665563106536865,5.68610532784386
4.665563106536865,3.6199484916802853
4.675883769989014,5.237658965620575
4.675883769989014,6.888464908952899
4.6860222816467285,4.903360118117924
4.6860222816467285,5.788319803209255
4.6860222816467285,3.921380299348719
4.696712493896484,4.907752329301836
4.707176208496094,3.9694189045726445
4.711190462112427,5.490805756745713
4.717602729797363,4.597597657376955
4.717602729797363,4.243088219472445
4.727794647216797,2.7852829371558556
4.738235712051392,4.702674984085119
4.738235712051392,2.940564507314031
4.748417615890503,5.029158848519451
4.748417615890503,4.392492451091693
4.748417615890503,4.587454303827865
4.758538484573364,5.961261537461793
4.758538484573364,3.943323427878372
4.768713712692261,4.847616210355055
4.768713712692261,4.677553331012115
4.778975248336792,4.6691389191690575
4.789454936981201,5.424095345794516
4.789454936981201,5.016171797431174
4.797082901000977,4.51387471037905
4.800052165985107,5.673868451152123
4.800052165985107,4.014170017446998
4.81029486656189,4.696427721128056
4.81029486656189,4.008152252208034
4.820487976074219,3.502008815504287
4.820487976074219,4.953842541469293
4.830652475357056,4.404642638878325
4.830652475357056,4.473138894759232
4.840950012207031,3.358982642422161
4.840950012207031,4.984579770823128
4.850987195968628,4.406907895664451
4.852999448776245,4.139545347456545
4.852999448776245,3.4555279206195713
4.861426591873169,3.431000819042564
4.861426591873169,3.480295021893332
4.8718626499176025,7.6482644204452015
4.876200199127197,4.747170605808509
4.882082939147949,5.1643946916784955
4.882082939147949,3.1875344504558725
4.892784595489502,4.297350295131754
4.8975138664245605,6.223784790851631
4.898525953292847,3.8261080192501193
4.898525953292847,4.256610013290147
4.908627510070801,2.6345853966805115
4.908627510070801,2.3020817471386725
4.918840646743774,3.313308316540432
4.918840646743774,2.950524729629241
4.918840646743774,2.6131694846146636
4.929321765899658,3.1380446557288453
4.93954348564148,4.01534846497574
4.9415552616119385,3.9359912729378115
4.9415552616119385,3.451461432978836
4.949842929840088,2.7757440758423004
4.949842929840088,2.041436820878227
4.96100640296936,3.5093042152787404
4.964041233062744,3.4477797051156216
4.9660515785217285,3.7476962041366413
4.970380544662476,3.4755595588866575
4.970380544662476,3.148841984404836
4.980756759643555,1.4801195135149494
4.980756759643555,3.629803977461673
4.990910053253174,1.4788959047462737
4.997511148452759,2.409403062764028
5.001089334487915,2.5470465661893984
5.001089334487915,3.112277278272879
5.011292457580566,4.075319300331129
5.011292457580566,3.1366377845968776
5.011292457580566,2.040971702876869
5.021708011627197,3.549329242840495
5.021708011627197,2.9446383552202087
5.031898736953735,1.647116014284356
5.031898736953735,3.339234372840401
5.042055606842041,1.9660741563662258
5.047272205352783,1.009111087108506
5.047272205352783,1.6666446070863459
5.052340745925903,0.9182929737732111
5.052340745925903,2.0749250475390957
5.062890291213989,2.8764123930817256
5.068618774414063,2.72809229057103
5.07262659072876,3.0687182730717595
5.076636552810669,3.1091009221577273
5.082862138748169,1.6921538027033558
5.082862138748169,2.4850186878718716
5.082862138748169,1.595076299765623
5.093121767044067,5.045290032166763
5.097630023956299,3.1108251005509553
5.1032874584198,0.9300204976749026
5.1032874584198,1.4381101901463866
5.113857984542847,2.685850335405371
5.113857984542847,2.338464002250343
5.113857984542847,3.013028643910053
5.124023199081421,1.5266532187379873
5.124023199081421,2.3374515851008284
5.134534358978272,2.503754350427943
5.134534358978272,2.948264563818033
5.145064830780029,1.3286852434122673
5.145064830780029,0.81694055529884
5.155383110046387,3.0076967368778065
5.155383110046387,3.2640285993164007
5.165605545043945,0.6319911739266781
5.165605545043945,1.5176226431751856
5.175640106201172,2.1989477872981498
5.175640106201172,3.205321525804669
5.185901165008545,1.7957287954996703
5.185901165008545,3.489390943414836
5.185901165008545,2.526665191980543
5.1979820728302,5.034564632126176
5.1979820728302,2.0618394116794825
5.206187009811401,1.7687538839284018
5.206187009811401,2.39912300297088
5.216733455657959,2.127651233501767
5.216733455657959,3.0146713669448535
5.226970434188843,3.8601308767283937
5.226970434188843,2.1737734376307816
5.226970434188843,5.727400096467491
5.237565040588379,4.265614347930476
5.237565040588379,2.0803330986815554
5.247741937637329,2.105160950051814
5.247741937637329,3.192662915659196
5.257827520370483,2.6905867929846137
5.257827520370483,3.2067313242191515
5.257827520370483,4.102385235928322
5.268047094345093,3.170082746537942
5.268047094345093,3.2753852533207013
5.278458833694458,2.500630198814584
5.288563251495361,4.5347954245613105
5.288563251495361,2.8914088728028338
5.298089981079102,3.1576424723165144
5.298089981079102,4.387766758223359
5.308429956436157,3.286524681888371
5.308429956436157,3.9353564162616177
5.318559646606445,4.639355565371002
5.318559646606445,3.113719896368283
5.318559646606445,2.9651256835357547
5.328654527664185,3.1562504109420653
5.328654527664185,3.6763448947838655
5.339048624038696,4.866110324933411
5.339048624038696,7.171503112364208
5.349447250366211,3.138791135367215
5.349447250366211,4.141070860578752
5.359602689743042,3.0735610289007056
5.359602689743042,5.97041381791314
5.370096445083618,5.314284122664903
5.370096445083618,5.10164187790404
5.370096445083618,4.616421176066893
5.380542516708374,4.2008837712150955
5.380542516708374,4.564481454983299
5.390957832336426,5.045900598119383
5.398439645767212,5.508810623722636
5.401382207870483,5.23369650492686
5.401382207870483,6.568536524969607
5.411936283111572,4.55959226673837
5.411936283111572,4.7991487441680505
5.422019004821777,4.5653260299266645
5.422019004821777,6.573781771217123
5.43242335319519,4.171993062120727
5.43242335319519,6.064460755638595
5.44271993637085,4.375075931131406
5.44271993637085,4.183041384363767
5.452914476394653,4.525969513031993
5.457496166229248,4.875057143794372
5.457496166229248,4.276075627870394
5.466108798980713,4.624190438765099
5.46989369392395,4.441017581234707
5.473397731781006,5.821802860322299
5.47736930847168,4.402095699142128
5.47736930847168,3.787241234054347
5.4837915897369385,4.7878980486271585
5.4837915897369385,5.187376504326539
5.493886232376099,3.7656754923626274
5.498581886291504,5.000530472077758
5.504420042037964,4.516645080413543
5.504420042037964,4.198735001174176
5.51469874382019,5.513164260075038
5.51469874382019,5.6118046566745186
5.51469874382019,5.330901273033139
5.526000499725342,7.519981246848601
5.526000499725342,4.353411388555148
5.537188768386841,5.0704404178510725
5.539201259613037,6.945455157292228
5.546198844909668,5.0462982069493885
5.546198844909668,4.263200355689319
5.555555820465088,5.290614843375758
5.561375141143799,3.6547728088231297
5.565605163574219,3.8639249287140034
5.569646835327148,3.7667886227845964
5.575698137283325,3.8108340627351036
5.575698137283325,4.133970829357967
5.575698137283325,4.460580522057631
5.586128234863281,3.8383375595365843
5.596949100494385,7.2785597760617184
5.598510503768921,4.3447971031676875
5.6066319942474365,5.379980881779497
5.6066319942474365,4.863448647799745
5.6066319942474365,4.2976077707817595
5.616704225540161,3.1695949971540607
5.616704225540161,3.4585558731143333
5.626840114593506,5.700091490564125
5.626840114593506,3.618553891341982
5.637378931045532,2.865020807903567
5.637378931045532,3.2853263039710376
5.647555828094482,5.041676540071606
5.652225017547607,2.667149853495807
5.65779709815979,3.630115255085051
5.65779709815979,5.327472914780147
5.65779709815979,3.131329701548865
5.66821551322937,4.6684864910852495
5.66821551322937,3.0554880661552475
5.67824387550354,4.38932047060173
5.67824387550354,2.077134197412315
5.6885387897491455,2.5015581607137505
5.6885387897491455,3.269485138281397
5.698755264282227,4.628062956827129
5.698755264282227,5.453652119736844
5.709265232086182,3.898144409816272
5.709265232086182,2.5873858431089625
5.709265232086182,2.910264903633365
5.720888614654541,3.5742016216890473
5.720888614654541,3.037202895031502
5.729825258255005,3.302212178557526
5.729825258255005,4.222128104788737
5.74207329750061,3.126593735771902
5.74609112739563,3.381920770595687
5.750098943710327,2.171284131706119
5.750098943710327,4.388847665813501
5.760356903076172,3.264115675935784
5.760356903076172,2.2593371632493358
5.77049732208252,1.1502162017572273
5.77049732208252,1.7107605504765526
5.77049732208252,3.45626658029803
5.780600786209106,0.685010194196084
5.78859806060791,2.526484899142307
5.791374206542969,3.033729218411346
5.791374206542969,3.590285864066116
5.8009865283966064,2.718394372385392
5.8009865283966064,5.7818564244500035
5.811212062835693,2.450896566915597
5.811212062835693,3.2840284657823378
5.811212062835693,2.7985164842721786
5.822442054748535,2.347539458348704
5.824449300765991,1.1616661522631868
5.831554889678955,1.9429341078324422
5.835711240768433,2.668402425312443
5.835711240768433,4.973061845351776
5.8416924476623535,2.2811163737130435
5.8416924476623535,1.418966277428468
5.851938724517822,1.9540629119074733
5.856274604797363,3.5291611220693313
5.862020969390869,2.5661167253473587
5.862020969390869,1.7673643388200797
5.862020969390869,1.6507458468043885
5.872193098068237,3.0630882996356847
5.872193098068237,1.8313078401162302
5.882392406463623,2.2981186679265933
5.882392406463623,1.9628469828215385
5.882392406463623,5.893555910938076
5.892834424972534,5.050239886054364
5.892834424972534,1.8609071156376502
5.898874282836914,2.2046910808077302
5.9029083251953125,2.0287245000988285
5.9029083251953125,4.164536993068545
5.9029083251953125,2.577204820798184
5.913011074066162,2.9235924468692214
5.913011074066162,3.620089671409809
5.923238754272461,2.7584204998414874
5.923238754272461,2.4086840026115803
5.923238754272461,2.8103541872539557
5.9333109855651855,4.243489185984401
5.9333109855651855,3.4857016080294274
5.943326234817505,4.61538481185285
5.943326234817505,1.584857153873586
5.953794479370117,3.5068853688261425
5.957940578460693,1.571546426323697
5.964592695236206,1.7941893526755786
5.9660046100616455,3.1018625348595106
5.9660046100616455,2.8044546370293864
5.973992109298706,2.2699934198788325
5.973992109298706,3.5841715840048822
5.973992109298706,2.766749224171762
5.984037637710571,2.148157671782373
5.989724397659302,2.5657844357789585
5.9937498569488525,3.359901133002411
5.9937498569488525,2.2228744643958676
5.998867511749268,4.43165566173785
6.003869295120239,3.49232922877336
6.007472038269043,5.0932165938596
6.016131639480591,3.3265852229689563
6.016131639480591,2.528374985592275
6.024393796920776,5.822935258465577
6.027475833892822,4.380688590203759
6.027475833892822,3.714393796061577
6.034813642501831,3.20508394552046
6.034813642501831,3.4541846895702983
6.034813642501831,4.384772629418768
6.044601440429688,4.266426176190903
6.054645538330078,5.5972535854736325
6.059939861297607,5.923856265059578
6.06467866897583,4.0529693824968955
6.06467866897583,4.121572861646878
6.074727296829224,3.6369711191948797
6.074727296829224,3.080176707601146
6.084747552871704,3.0661552735505784
6.084747552871704,4.015563975958825
6.094866514205933,2.549861467380204
6.098758697509766,5.625203127212079
6.104902982711792,6.072593352556579
6.104902982711792,5.184731044518464
6.115314960479736,3.807811016097063
6.119323968887329,3.5472302885626545
6.125454902648926,4.678460474078666
6.125454902648926,3.95378220259214
6.13571572303772,4.543959294119757
6.13571572303772,5.147022947272371
6.146190404891968,4.329090965839128
6.146190404891968,6.752384004083874
6.156593084335327,4.851094029057447
6.166712284088135,3.1978207118657647
6.170744180679321,6.964940683099385
6.176947593688965,4.711953984705175
6.176947593688965,6.853892848105696
6.187148332595825,4.752874817212103
6.187148332595825,3.600984041690361
6.197370529174805,5.444888089056481
6.198882818222046,4.336857968303665
6.2074925899505615,5.38218297209198
6.2074925899505615,9.169817578501123
6.217654466629028,5.55152958494897
6.217654466629028,8.527297106084708
6.228112697601318,4.533300828568925
6.228112697601318,3.959519337197025
6.238157510757446,4.6073388070398185
6.238157510757446,5.21183001353692
6.248570203781128,4.936201842047517
6.248570203781128,4.890429355866843
6.258725881576538,4.583588338835415
6.258725881576538,6.02479753135226
6.268823385238648,4.587114955071259
6.268823385238648,3.317027685945455
6.278894424438477,4.468680793652602
6.278894424438477,4.036631476086891
6.289186239242554,3.669849980052738
6.289186239242554,5.426084120609581
6.298954963684082,4.807195437806559
6.298954963684082,3.7866227819597738
6.3090667724609375,4.825028765648021
6.3090667724609375,3.5799438585394143
6.319467782974243,4.504493233146211
6.319467782974243,3.7204985017471817
6.329610586166382,4.4023253687370065
6.329610586166382,4.235703015719741
6.340066432952881,4.171584976457587
6.340066432952881,3.4060659253765175
6.340066432952881,7.3676408994704
6.35019326210022,3.5914222510671396
6.35019326210022,3.173804410340357
6.3605828285217285,5.455142916623925
6.3605828285217285,4.294730188450838
6.370782852172852,2.64205636317109
6.370782852172852,3.0479371521838527
6.38526463508606,3.9796198129145934
6.389589548110962,4.758311843697887
6.391329050064087,3.002941876758707
6.399029970169067,6.0995980559222245
6.401417970657349,4.444512652844688
6.401417970657349,4.681021785773775
6.411617994308472,4.810147142142316
6.414658308029175,3.8727826676957275
6.421950340270996,4.151276470615169
6.421950340270996,3.3198423947895863
6.432194232940674,4.8319519259906105
6.432194232940674,6.300720895994047
6.442275047302246,4.158204114815446
6.442275047302246,3.633889502369003
6.452383041381836,2.603045521671432
6.452383041381836,2.239269050364865
6.462742328643799,1.8264015022346944
6.462742328643799,6.158048168321608
6.473019361495972,2.182528135454024
6.47748064994812,3.0062478265684502
6.48320460319519,3.173964392224779
6.48320460319519,3.9677934026737
6.493747234344482,2.87175080950269
6.4990551471710205,2.237529789585722
6.503999948501587,6.093921087504718
6.503999948501587,2.4011051144221733
6.514123439788818,4.715962027080762
6.514123439788818,1.006254654776781
6.524425268173218,2.7198011683084564
6.524425268173218,1.891613040454392
6.534759759902954,4.632548667142957
6.534759759902954,1.7075304781374019
6.545153856277466,2.588863350191348
6.549392461776733,2.0194187334685756
6.551900148391724,2.4884956552860618
6.555649042129517,4.092790375758279
6.561059236526489,2.941467939405378
6.565823554992676,2.0740330647752105
6.565823554992676,2.7567881621474015
6.576071739196777,3.427379337490754
6.586127042770386,2.5884693843403945
6.586127042770386,1.622580198908479
6.59618353843689,1.5832257256154816
6.5990965366363525,0.9828935178635001
6.606595277786255,3.997236378474252
6.606595277786255,1.9518194675406644
6.61661696434021,2.8151513046935195
6.61661696434021,2.549068450964986
6.626741409301758,2.6295075235388268
6.626741409301758,2.2572009240011974
6.636925220489502,1.607116016134943
6.647132158279419,1.2654619460220853
6.647132158279419,1.2891222200470485
6.657735586166382,0.6568303636690359
6.657735586166382,2.3913494193133715
6.670222282409668,1.5785992947476735
6.670222282409668,2.125095327960527
6.678669691085815,2.0328979806143037
6.689039468765259,3.0987502269438587
6.689039468765259,3.1066248373978644
6.702800750732422,3.2709273475523535
6.707475185394287,3.09133599445081
6.713873863220215,1.6268475136130056
6.719481468200684,2.5365113812787805
6.72226357460022,3.7289896607820636
6.729708909988403,6.4453971482157115
6.729708909988403,2.131049268842895
6.740043640136719,2.352791609740331
6.740043640136719,1.2137999483620734
6.750401973724365,2.1425724515761324
6.760691404342651,2.4082263475341996
6.76409387588501,2.871919405331056
6.770964860916138,3.7447886398031645
6.78134560585022,4.01746905522903
6.783366918563843,2.758723057126388
6.791740894317627,1.9202555754445205
6.798985004425049,1.4821212789524743
6.802050590515137,3.0466751339484994
6.81220006942749,2.5952933151096893
6.817200660705566,1.5128315251732571
6.8225531578063965,1.8742782823824893
6.8225531578063965,3.796788264901415
6.832672119140625,3.652019225083074
6.842793941497803,2.452920864204311
6.842793941497803,1.8656258128714396
6.8530755043029785,3.944908319027677
6.8530755043029785,3.459272247744895
6.863121271133423,6.012731644776075
6.863121271133423,2.9663562078452044
6.873526096343994,5.425977524341781
6.877254962921143,4.317090071235876
6.883826017379761,4.464473868058682
6.883826017379761,3.4123138835059406
6.893922328948975,4.015432728839727
6.899178981781006,4.700723632461152
6.904106378555298,3.4739464327037775
6.904106378555298,2.5781182583016813
6.9142115116119385,3.1055145751505777
6.9142115116119385,3.438929122061891
6.924299001693726,5.310549102285705
6.924299001693726,3.6488633110440327
6.934468030929565,4.493145994835452
6.934468030929565,3.9693569182041557
6.944666862487793,4.173739802550879
6.944666862487793,3.518890747888637
6.954737901687622,4.098551672803344
6.954737901687622,4.1846672483323495
6.964972019195557,3.8949549982949274
6.964972019195557,2.592028871351304
6.975077152252197,5.362110351284479
6.975077152252197,4.48581126914738
6.975077152252197,4.869767419994355
6.986485004425049,4.776979470732719
6.99318790435791,3.072574683655945
6.999278783798218,4.40111145621225
7.000894069671631,2.9901321602854862
7.005450487136841,4.411121640218456
7.015488386154175,5.4641373995119
7.015488386154175,4.596952281256441
7.025682687759399,4.512639128255078
7.027586221694946,3.606195262456077
7.0359275341033936,5.727540359203257
7.0359275341033936,7.393719724156606
7.046116352081299,5.957238331447731
7.046116352081299,4.295499582159798
7.046116352081299,4.257063686727242
7.056315898895264,5.408050835876028
7.056315898895264,5.063074826609
7.066643476486206,3.0890244060667733
7.066643476486206,3.8357882689341527
7.076938152313232,3.296968744005623
7.087122440338135,6.6324308731588095
7.087122440338135,3.416346565410763
7.097177982330322,5.50330896294681
7.099227666854858,4.245931419382222
7.107233285903931,4.888933516201408
7.107233285903931,3.3606844274390295
7.117453813552856,5.1647522324671495
7.117453813552856,4.420477961638424
7.127555847167969,4.959013272562444
7.127555847167969,4.6184786102080775
7.137645959854126,3.5615656195976935
7.137645959854126,4.788908015306282
7.147965908050537,5.386531949197086
7.147965908050537,5.662150971269509
7.158214569091797,5.065360884886498
7.168296098709106,4.86217879794618
7.168296098709106,4.606752471351237
7.178425550460815,4.869478797811014
7.178425550460815,7.890594158198872
7.178425550460815,3.1558196724158645
7.188679933547974,3.5926301435757675
7.188679933547974,3.008712884951719
7.199492454528809,5.96863746412923
7.199492454528809,7.470480636277442
7.209663867950439,5.038940132519623
7.209663867950439,3.4834516675242764
7.21979808807373,4.474932821005046
7.21979808807373,4.324256478794277
7.229984760284424,3.6799779759208473
7.240133285522461,3.447580631564398
7.240133285522461,4.352469493071701
7.250507116317749,5.573257028554434
7.254523038864136,4.664881478613955
7.260578632354736,3.023512712328585
7.260578632354736,3.3798637655712707
7.270730018615723,3.2616413193455456
7.270730018615723,6.512042766877764
7.280866861343384,3.315365364170183
7.280866861343384,4.663897696971028
7.290927171707153,4.232969934660944
7.290927171707153,2.6286456954197286
7.301252841949463,3.3156350391975975
7.301252841949463,3.845277275028407
7.311330795288086,4.000563989503322
7.316040515899658,2.4221763597791885
7.32149076461792,1.528802851202998
7.32149076461792,4.620427390487646
7.33152437210083,4.672388003185572
7.33152437210083,3.593977517753623
7.343289613723755,2.062955545262431
7.347777605056763,3.5469462391572133
7.35384464263916,1.97313482622247
7.35988712310791,4.010127800976265
7.363922357559204,3.2421061336373636
7.372077703475952,2.4481454269468528
7.378127574920654,1.687601675621808
7.384397029876709,2.223172492908166
7.390493392944336,4.4854894213601675
7.392515182495117,2.2782695617022215
7.402961492538452,6.601722545633011
7.410120248794556,5.41884512633818
7.415022850036621,2.1383896311597153
7.415022850036621,2.1058554312339495
7.423527002334595,2.6063600350383718
7.433924198150635,2.4590979819746694
7.433924198150635,1.7663422888390694
7.446565866470337,3.556531590601651
7.450604915618896,1.952214970082469
7.454936742782593,4.875036902538827
7.467380285263061,2.4078571817812993
7.467380285263061,5.55356437772395
7.479690313339233,4.3597477138568825
7.485741853713989,1.3632441351574265
7.493813514709473,2.0322279574642312
7.49786901473999,1.7582740135975203
7.499887466430664,2.3564121209283857
7.508422374725342,1.6359435872726529
7.514467239379883,3.0272288483676117
7.516228675842285,3.6470482492920375
7.523846864700317,3.1257742965953788
7.528404712677002,1.7466584076939484
7.53445553779602,2.8739723132648622
7.536490201950073,1.9196772256056023
7.543778657913208,3.8934661010068146
7.548817873001099,3.0712656058505563
7.552844524383545,1.962909613001072
7.558888912200928,2.9231678288250484
7.56291937828064,0.5118013642020922
7.568973779678345,1.0361411501217699
7.573001861572266,3.35317325293491
7.579045534133911,4.409567693866304
7.585087776184082,1.9427108222891993
7.589141845703125,3.518148197476331
7.595197200775146,5.039406119065987
7.600340843200684,3.3569998548797306
7.600340843200684,2.3741150774636925
7.609501600265503,3.5027328733604315
7.613556146621704,1.6141531228827486
7.617959260940552,2.6471321743234197
7.617959260940552,2.5590786469122744
7.628230094909668,2.1129062385402326
7.628230094909668,3.2028918164387585
7.638562440872192,1.2173876417586715
7.644577264785767,3.9123121007437476
7.650627374649048,3.4469511740323706
7.652648448944092,2.806897820420761
7.659074068069458,1.8239784559224037
7.659074068069458,3.7273006974806
7.671175718307495,2.2945825037505494
7.675207138061523,2.9451351943994117
7.67925500869751,2.52489129901631
7.68126916885376,3.2794509649768715
7.689468145370483,2.889090257291988
7.689468145370483,3.4563600488646324
7.702219009399414,4.258506780108875
7.7082908153533936,4.846202761776878
7.71009635925293,2.4412247918805265
7.71009635925293,2.8523332828270997
7.722559452056885,2.7547312225255913
7.722559452056885,6.199815803745729
7.730844497680664,6.128618494146741
7.730844497680664,4.76363427525555
7.741053342819214,2.858573975034875
7.743031024932861,4.109554758505778
7.751488447189331,3.4758415926404362
7.751488447189331,3.2084332708934356
7.761775732040405,3.757557702454685
7.761775732040405,3.5534091764008497
7.772133111953735,4.102206507742989
7.776164770126343,2.2830427699308338
7.782700061798096,4.418029210657082
7.786880970001221,4.349011659501639
7.793100833892822,2.6818374714829063
7.797156572341919,2.988130912244344
7.8022027015686035,3.668830930409761
7.804620265960693,4.122966376794696
7.8132243156433105,4.313358015300992
7.817917108535767,3.210567982366585
7.821971893310547,6.970167981165655
7.827771186828613,3.27812559726699
7.831799507141113,6.175886220634966
7.83789849281311,4.123959968379347
7.841929197311401,4.516322222015633
7.847988128662109,5.531869073077589
7.854029178619385,4.681259873758668
7.8580803871154785,2.343398781656326
7.8580803871154785,4.549021643444626
7.86515212059021,4.521955079054786
7.86515212059021,2.9240963273248273
7.8747053146362305,3.962499597231912
7.884932041168213,4.529342374934546
7.884932041168213,4.039978199563683
7.895131587982178,4.415862429267422
7.900457143783569,5.3928876195375235
7.905627250671387,4.453119295136839
7.905627250671387,5.112781939311868
7.915713548660278,5.216191296715679
7.921771764755249,3.9802506973063836
7.925816297531128,3.5485501102965364
7.925816297531128,4.363483271236223
7.936229944229126,4.822276766652203
7.936229944229126,4.601967404019367
7.946507453918457,4.668044977710407
7.946507453918457,3.297778157350515
7.956878662109375,5.961513283117287
7.956878662109375,5.583974882738457
7.967178106307983,8.144824707406805
7.967178106307983,5.34417619653891
7.977576732635498,4.43530061532312
7.977576732635498,3.4785219647637584
7.98797082901001,4.3794871493048175
7.98797082901001,4.307350426776569
7.998194217681885,5.031687653901726
8.0047447681427,4.452926603881515
8.010533571243286,6.54133808692033
8.014566659927368,4.960261712479115
8.018664121627808,4.453872952575253
8.018664121627808,6.8090767545062985
8.029066801071167,3.9351865582875027
8.029066801071167,3.7195962404138148
8.03938889503479,7.875144416036533
8.03938889503479,6.03467855891768
8.049954891204834,3.2395699547141636
8.056002140045166,3.4583528607838234
8.060086965560913,5.609306618026373
8.060086965560913,7.583128595954406
8.070375442504883,4.321682969729556
8.077715873718262,6.531683306151756
8.080822706222534,4.9203378485244995
8.090968370437622,5.711516590517783
8.093019008636475,5.105634508219965
8.101094007492065,3.3486259028288283
8.111613512039185,4.386828140880506
8.11363434791565,2.6810384097332474
8.123215675354004,3.098800653627085
8.125880479812622,4.589448731221973
8.133265733718872,5.571319118187319
8.142425537109375,4.948045164758451
8.147684574127197,4.267585582121974
8.152664422988892,3.7562725128552943
8.152664422988892,2.872355444052188
8.16273546218872,2.4313358876749076
8.164751529693604,1.4674474277219867
8.172508001327515,4.432390899210887
8.17655062675476,2.273046967633548
8.182739019393921,2.4725745261599434
8.186105251312256,5.604666079161664
8.186105251312256,3.4907085939032667
8.19277548789978,3.1992874959047675
8.19277548789978,3.4201230746898035
8.202966451644897,1.9867708222238365
8.202966451644897,5.839987753678062
8.213082551956177,3.3089608503209083
8.219377517700195,3.180694548017466
8.225163459777832,3.705890594058931
8.229735851287842,2.5121372464272107
8.23567271232605,1.9512501400937856
8.23567271232605,5.0148857358504095
8.24415111541748,2.9382376247513946
8.2498459815979,3.0470662228166847
8.2546226978302,3.024484072760558
8.2546226978302,2.1461075245189885
8.264795780181885,1.92031491776266
8.264795780181885,2.3251953946088832
8.27538275718689,3.732836871053608
8.283427238464355,3.3104747899329268
8.285442352294922,3.3907797279849516
8.285442352294922,3.889484855981369
8.29776906967163,2.8107274786587584
8.30159592628479,1.5343312407614924
8.306016206741333,1.3534375026938419
8.306016206741333,4.487738750023486
8.318633794784546,1.4403645417754807
8.324854612350464,2.4224200675865597
8.329703092575073,2.202556064468799
8.329703092575073,1.679106104850704
8.337286949157715,1.8035321927932104
8.337286949157715,4.3756630024252
8.347819566726685,2.2090715408972965
8.353415250778198,1.5151166943631422
8.3594651222229,2.413009004450888
8.365522146224976,2.884209562686492
8.36955738067627,2.36407236316801
8.377591848373413,1.770194487914854
8.383646488189697,1.1988707511463614
8.387672901153564,4.4749105953399955
8.387672901153564,3.188159695495557
8.397842407226562,1.9263397100239155
8.40196967124939,2.6759663569516787
8.410217046737671,2.132955714198158
8.410217046737671,1.2191568304909794
8.418455123901367,1.9380998044455116
8.418455123901367,0.8453061764607859
8.431054592132568,1.9206756811707693
8.431054592132568,5.416203236478802
8.443588972091675,1.6392362403702436
8.44762110710144,2.285564802396298
8.45166540145874,3.3211376986098102
8.459814310073853,3.137669097213814
8.463773012161255,3.336937771922398
8.469824314117432,3.3742787569596406
8.471856832504272,5.09237863094738
8.480274200439453,3.2953364607781803
8.48294973373413,2.3607449386025103
8.48294973373413,3.028264931029411
8.49067735671997,4.147921329884525
8.49067735671997,2.7498033553202843
8.502227067947388,1.9660510715143515
8.502227067947388,4.5186674758873
8.515326261520386,2.4845585567223423
8.52209997177124,2.1831349587965785
8.526134729385376,3.4601676860192696
8.532413244247437,2.850171572597607
8.53644061088562,4.364286961553885
8.542287826538086,2.495008038812447
8.542287826538086,3.089604142463151
8.542287826538086,3.27781463156624
8.55448031425476,3.9287144535080483
8.55448031425476,2.5955078550505495
8.562751770019531,4.305349000852191
8.562751770019531,5.531500686888476
8.57291579246521,2.2386410468088913
8.583120107650757,4.944050333513338
8.583120107650757,4.132179547261698
8.593327045440674,2.4115854238557963
8.593327045440674,3.844262733866846
8.605504274368286,5.448827716543775
8.611557483673096,4.029937850091983
8.615599393844604,4.26722885485411
8.621650695800781,3.7415110358042822
8.623680114746094,2.473209800281073
8.623680114746094,2.997175650131299
8.634125232696533,3.3380606704987206
8.634125232696533,2.8798910370745547
8.644286632537842,3.235144631613012
8.644286632537842,4.732346621369091
8.656683683395386,3.177315830776643
8.656683683395386,4.028339610126197
8.664778232574463,3.6280001655229546
8.664778232574463,4.549283731160079
8.675249338150024,4.413540274102601
8.675249338150024,4.565899788599321
8.685706853866577,3.7004032186259552
8.685706853866577,3.774471233997676
8.69736933708191,4.606378891151521
8.70267105102539,4.011156247124134
8.706339359283447,7.70325630025782
8.710781812667847,4.363583394280716
8.718206644058228,4.2505564527037825
8.724754571914673,4.210436957915148
8.728839635848999,3.9852025261526536
8.728839635848999,4.194578670932374
8.738189220428467,3.9981745824880393
8.738189220428467,4.3339095528525755
8.750822305679321,4.285927779716766
8.755118370056152,4.277053789012364
8.758861303329468,4.296374898034471
8.758861303329468,4.306087315582718
8.769156455993652,4.337626614792619
8.777256488800049,4.325204125121986
8.78283166885376,4.288191616045551
8.786884784698486,4.310564217378712
8.792955160140991,4.312526264807477
8.799013614654541,3.9506166381168684
8.802781105041504,4.048989408982343
8.809138298034668,4.32542140148536
8.813167810440063,4.386880366616558
8.819212675094604,4.03880004538804
8.825193405151367,4.259080750104141
8.827601671218872,3.8535831830859193
8.827601671218872,4.372488232513285
8.841653108596802,4.300217401516405
8.845688819885254,3.9393309237725003
8.849711656570435,4.173914224497455
8.849711656570435,4.151522380119342
8.862256050109863,3.8952926922031343
8.862256050109863,4.261725873157024
8.874191522598267,4.212485870315531
8.878217458724976,4.052174483389403
8.886308193206787,4.267890242665243
8.892357587814331,4.082810927156047
8.898410320281982,4.3625792267971075
8.902950763702393,4.238410221064817
8.908739805221558,4.354248602735804
8.912768602371216,3.9623878669640167
8.918871879577637,3.990404672761547
8.9212007522583,4.189036165456545
8.93096399307251,4.006336617775199
8.937015056610107,4.197892630271165
8.943111419677734,4.147462574990019
8.94919466972351,4.0102847421780465
8.953251361846924,4.22026556707178
8.959299802780151,4.217500465307533
8.965342283248901,3.9870795454009573
8.971472978591919,4.06707867978868
8.977447032928467,3.916073140380299
8.98555588722229,4.373796715194998
8.99159836769104,4.2839932040577136
8.993614435195923,4.2617255558095755
9.001655578613281,4.026518534987278
9.005179166793823,4.059678010774392
9.01021933555603,4.292800347643917
9.016577243804932,4.0227886084549365
9.020422220230104,4.254404514991113
9.020422220230104,3.9108970477620053
9.03295612335205,4.359147769914415
9.034972906112673,4.062494698390136
9.041290283203123,4.301386894921155
9.041290283203123,4.412907354817493
9.055684328079224,4.16311093347744
9.059716701507568,3.9765756996036674
9.065766096115112,4.136463142202131
9.071850538253784,4.152314987922416
9.080143690109251,4.285720847118831
9.085951805114746,4.345786880789643
9.092025518417358,3.9836334973043774
9.096067190170288,4.330276814824381
9.105316162109377,4.337456996804497
9.111361742019652,4.2696935851380475
9.112380981445312,4.2786216746948975
9.112380981445312,4.017357155798014
9.12284255027771,3.9619326924136353
9.12284255027771,3.9853387832762524
9.13300633430481,4.201200779370722
9.13300633430481,4.258295145867629
9.143150091171265,4.046620077134693
9.143150091171265,4.350650773984716
9.153285026550291,4.140065624388459
9.153285026550291,3.9250874218333833
9.153285026550291,4.323053161797642
9.163414478302002,3.903890756487419
9.163414478302002,4.08610365722501
9.175581932067873,4.339159529913497
9.179614543914797,3.9515534182276486
9.18412184715271,4.188276253535103
9.18412184715271,3.9868025571042103
9.18412184715271,4.340322599474054
9.195449113845823,4.215922128173996
9.195449113845823,4.244280459456347
9.204485416412354,3.9133739768641416
9.204485416412354,4.022553681038504
9.214728116989136,3.9015945262976195
9.214728116989136,3.9778207369867298
9.224868774414062,4.062009322778588
9.224868774414062,4.017972737497218
9.234994888305664,4.126248864864872
9.234994888305664,4.144091669308191
9.2454571723938,4.218551223421581
9.2454571723938,4.176127061805451
9.255731582641602,4.178265558763417
9.255731582641602,4.302414326207168
9.266151189804075,4.186235738588085
9.266151189804075,3.900429278506479
9.277173280715942,4.060744065902428
9.286312818527222,3.967788829928632
9.286312818527222,4.345191395310431
9.296660661697388,3.9571368432743643
9.303574562072754,4.258103010420747
9.307729959487917,4.400443723817384
9.309740781784058,3.944326603180022
9.316866159439089,4.011270035804711
9.316866159439089,4.03005650047639
9.32693600654602,4.098969433262856
9.32693600654602,4.166251916347844
9.337100505828856,4.380239418058814
9.337100505828856,4.186964599607497
9.347322702407835,4.2301513953797025
9.357553482055664,4.172742552165687
9.360496044158936,3.9469969491161674
9.367811918258669,4.356298247770716
9.377958536148071,4.25251728288905
9.377958536148071,4.154323616385494
9.38797664642334,4.3748949178763255
9.391481637954712,4.274701803172719
9.403695583343506,4.06751132122046
9.40816044807434,4.30579946620024
9.40816044807434,3.887468549616653
9.418230295181274,3.926130627278703
9.418230295181274,4.160656572433728
9.428343534469604,4.328563294880706
9.428343534469604,3.9641837820163826
9.438575983047484,4.3706148000268525
9.438575983047484,4.301541064869685
9.448732376098633,4.051692475737127
9.448732376098633,4.1739509896655935
9.458834409713743,4.147367524333953
9.458834409713743,4.328307768738825
9.468998193740845,4.245182657826039
9.475965976715088,3.985310848637109
9.47942042350769,4.23848504981084
9.486728429794312,4.343104699664972
9.489609479904177,4.255809704609874
9.489609479904177,4.231139242125881
9.499637603759766,4.289245977157698
9.504010915756226,4.250244315518578
9.509904623031616,3.857773110158096
9.511120080947876,3.9990833105893975
9.511120080947876,4.307838428532628
9.519945859909058,4.219890099449008
9.519945859909058,4.057893281537397
9.530276536941528,4.306150505262835
9.530276536941528,3.9908843748013787
9.54237461090088,4.044139423339532
9.5443856716156,3.9648320160237938
9.550697088241575,4.002950092924147
9.556766986846924,4.274913213322762
9.562098264694214,3.9831044034692065
9.562098264694214,4.1212871593205325
9.571003913879396,4.140557970607815
9.57312273979187,4.101152428013648
9.581180810928345,4.024756195252292
9.581180810928345,4.3463128220249585
9.591236114501951,4.195798101428329
9.591236114501951,4.284974163941384
9.591236114501951,3.9724369908852797
9.60423731803894,4.125007637530191
9.60423731803894,4.145847400413923
9.614697694778442,4.273066359155337
9.619078159332275,4.1664181856453455
9.621726274490356,3.9437678854134637
9.621726274490356,4.303459953614161
9.632150650024414,3.9623820270811034
9.632150650024414,4.1506693422222805
9.64222288131714,4.311315396303209
9.64618706703186,4.097505076515235
9.652981042861938,4.043288269124774
9.655794382095335,3.967272769771091
9.662392616271973,4.001104022545254
9.66479229927063,4.209944867816275
9.67251181602478,4.235829733789919
9.67251181602478,4.139629338854721
9.682741641998293,4.308922070195749
9.682741641998293,3.9754659979341933
9.693122625350952,3.9481645568764026
9.693122625350952,4.224180414597368
9.704578399658203,4.086306257205594
9.704578399658203,3.9795882108052467
9.713597059249878,4.031745675986775
9.723785161972046,4.145393143320237
9.727761507034302,4.216050399212981
9.73348355293274,4.310699007884962
9.73348355293274,3.9747170408633052
9.74350357055664,4.041461014540881
9.753670930862429,4.119525548958834
9.753670930862429,4.057246013723028
9.753670930862429,4.30286535429047
9.76399564743042,4.215433489930696
9.774844646453856,4.023097197439504
9.774844646453856,4.065676432602946
9.786241054534912,4.42160628186331
9.789580345153809,4.173891326277524
9.795280456542969,4.0229541143995435
9.802782773971558,4.10938567805772
9.804792404174805,4.324322156651668
9.804792404174805,4.062797446718566
9.81755805015564,4.250976320315657
9.81755805015564,3.8836759539128316
9.825030326843262,4.1048637831465795
9.83137321472168,4.124025936881362
9.83539628982544,3.8650675606252056
9.83539628982544,4.434232886029587
9.845508813858032,4.17449603846865
9.845508813858032,4.076820888510649
9.8556547164917,4.349863775186669
9.865809202194214,4.166826831178081
9.865809202194214,4.266230664353435
9.875628232955933,4.128919191102503
9.875628232955933,4.053104464101888
9.886383056640623,4.306685706390828
9.89038896560669,4.368929842137108
9.895543098449709,4.226220961555992
9.899968385696411,4.195450289806192
9.9051411151886,4.322605283104528
9.911598920822144,4.383578738901253
9.913609743118286,4.10170580305475
9.9229097366333,3.941252123506673
9.92898941040039,4.4167079191601255
9.93001651763916,4.111566073092558
9.93001651763916,4.459547277147122
9.940305709838867,3.974232794944494
9.95068883895874,4.326669268596323
9.95182752609253,4.425000536950342
9.95182752609253,3.9337849332532464
9.960740327835085,3.8289177105949412
9.970763683319092,3.928294417152841
9.975582122802734,4.290915775395591
9.980961799621582,4.334315396734187
9.980961799621582,3.989639385906362
9.991169452667236,4.28838157142626
10.001198768615724,4.350913086250313
10.005617618560793,3.990181014676308
10.011247873306274,3.955860141684595
10.011247873306274,4.14681344260091
10.021283864974976,4.110044819802063
10.021283864974976,4.251550559855545
10.031375646591188,4.363851584252114
10.031375646591188,4.160500530364078
10.041510820388794,4.255927305212676
10.041510820388794,3.9941575356995744
10.051625728607178,4.181831818659594
10.051625728607178,3.9937529317761746
10.061791181564333,4.318096341133154
10.061791181564333,4.303676745233705
10.061791181564333,4.464914253514501
10.07184076309204,4.1986179333376645
10.07184076309204,4.122883691652096
10.081865310668944,4.023401426274325
10.081865310668944,4.312557643630732
10.092250108718872,4.093063508046596
10.092250108718872,4.336994208985964
10.102636814117432,4.043933991625919
10.105848789215088,3.9672453040567786
10.11278223991394,4.236948427984583
10.11278223991394,4.381128225910758
10.122965335845947,3.936633890956071
10.122965335845947,3.94502117473062
10.135662078857422,4.269748232906622
10.135662078857422,4.285288289195257
10.143629550933838,4.321610894550709
10.143629550933838,4.019090365856238
10.15397572517395,4.213770771722844
10.15397572517395,3.9781027163135914
10.164236545562744,4.269247070972365
10.174673080444336,3.986049123263125
10.174673080444336,3.9435397108423116
10.18481469154358,4.091044101183533
10.18481469154358,4.033943916913435
10.195007085800173,4.1448293433703185
10.206706762313845,4.422350524527584
10.206706762313845,4.088026887212384
10.215525150299072,4.274755675819413
10.225682020187378,4.1799093294516645
10.225682020187378,3.9980206720470357
10.2357497215271,4.0629249277575115
10.245911359786987,4.171601600092685
10.245911359786987,4.0337731947348425
10.256169319152832,4.153232174255971
10.256169319152832,3.895049101887507
10.266591787338257,4.0550348829177025
10.266591787338257,3.9906795022977755
10.276992797851562,4.126242773116935
10.276992797851562,4.39475544561419
10.289048433303831,3.968007504131607
10.293062448501589,4.131391555976345
10.297075510025024,3.9614884761845572
10.297075510025024,4.314318282342606
10.307173252105711,4.345551568345472
10.307173252105711,3.964777100972216
10.317469120025637,3.8967607881095336
10.317469120025637,4.177028990814674
10.328070640563965,4.385745873931263
10.338298320770264,4.160408988200149
10.338298320770264,4.041064703366059
10.348518133163452,4.0000527184867956
10.348518133163452,4.315965178932495
10.360671758651732,4.185665475491267
10.360671758651732,3.9246632379178368
10.369059324264526,4.051686209861671
10.376833200454712,4.1313798589867305
10.37955379486084,4.274990488083737
10.383461713790894,3.881372647927149
10.389894247055054,4.298081713999683
10.400084257125854,4.215810511330652
10.404531478881836,4.2515561523549055
10.41018295288086,4.285586127856782
10.41018295288086,4.038317997352776
10.420366287231444,4.043546930160777
10.420366287231444,4.044342577299738
10.433228492736816,4.196257583031701
10.439635753631592,4.252998641912692
10.441149711608888,4.43721354954813
10.45120644569397,4.269356897846896
10.454911947250366,3.9081197610122484
10.461308240890505,4.16993150700398
10.461308240890505,4.064056339129616
10.471678256988524,4.133225957865858
10.471678256988524,4.25153556982664
10.48618197441101,4.085136534108527
10.48618197441101,4.31306998272621
10.49202823638916,4.426143031742336
10.49202823638916,4.083231043061316
10.502227067947388,4.0267033055613135
10.506136655807495,3.883536320119818
10.512269258499146,4.1242056777831015
10.512269258499146,4.051317395527642
10.522284269332886,4.183153410046701
10.527612447738647,4.2589469418774755
10.532306671142578,4.0551844573614035
10.532306671142578,4.148782620712634
10.542683362960815,4.279161819784113
10.542683362960815,4.115453125233656
10.553040742874146,4.168484952145248
10.55995488166809,4.287378303406206
10.563198566436768,4.158122868001238
10.563198566436768,4.371804632660758
10.577967643737791,3.966280727475537
10.584021091461182,4.083697544435429
10.588340044021606,4.028794371575195
10.594448566436768,4.340659966756843
10.594448566436768,4.060814467087782
10.606550216674805,4.02278982515114
10.606550216674805,4.3736776314086505
10.616681337356567,3.9481035000111273
10.616681337356567,4.122383623030972
10.626248836517334,4.408608801765945
10.6302649974823,4.243128249034632
10.635077476501465,3.9729451964478395
10.64124631881714,4.157585827242643
10.645309448242188,4.1743662565955635
10.645309448242188,4.139801314447327
10.655319213867188,3.9548670878316328
10.655319213867188,4.175153192761972
10.66626787185669,4.206704497581496
10.66626787185669,4.155032707385704
10.676992416381836,3.86459683584038
10.679003953933716,4.264023198109314
10.689655303955078,4.249425552949648
10.695878982543944,4.193642879953865
10.699615716934204,4.027592005395609
10.706594944000244,4.376460689227577
10.706594944000244,3.8086860339961595
10.716862916946411,3.905161862017106
10.716862916946411,4.16200989155683
10.727243900299072,4.083791402101122
10.727243900299072,4.355651949860079
10.727243900299072,4.342803695364871
10.73734211921692,4.017012809535265
10.74740719795227,4.278505251988516
10.74740719795227,4.1056951600347755
10.757586002349854,4.323431317521156
10.757586002349854,3.9598433888223856
10.767671823501589,3.9853912080117135
10.767671823501589,4.246869652795591
10.777732133865356,4.359890659978008
10.777732133865356,4.275560463482836
10.787907361984251,4.2020972469045255
10.787907361984251,3.8744862919110425
10.798230648040771,4.112028810923264
10.806831121444702,4.051014083143505
10.808627843856812,3.929534111015222
10.808627843856812,4.211410598797193
10.81913161277771,4.247923750529645
10.81913161277771,3.9360781065140307
10.82923936843872,4.356054136217778
10.82923936843872,4.364123422597274
10.839561223983765,4.218753029838408
10.839561223983765,4.131918678607421
10.85002589225769,4.111513549197865
10.855100631713867,4.2492076963503225
10.86026668548584,4.106221415139978
10.86026668548584,3.9626397260920108
10.86026668548584,4.174646952013857
10.872427463531494,4.178246442923749
10.872427463531494,4.149018922271469
10.880337476730348,4.273517170294556
10.880337476730348,4.099176024503397
10.890608072280884,4.276626930721847
10.895402431488035,4.177261246314791
10.904714345932009,4.0818396625263915
10.906739950180054,4.158764249814901
10.914221286773682,3.968752453601026
10.914221286773682,4.000135705481855
10.921321630477903,4.069675610209775
10.921321630477903,4.282181008688125
10.931678295135498,4.368782643963192
10.931678295135498,4.035925988547755
10.941717624664308,4.030912238313189
10.941717624664308,4.108830204660297
10.952025175094604,4.370091288549426
10.952025175094604,3.988657290226153
10.962535858154297,4.082135475803236
10.96782159805298,4.3447641299368716
10.972751379013062,4.338434616955141
10.978658437728882,4.325947805072766
10.982858657836914,4.033512515406548
10.9897141456604,4.309426026014009
10.993081092834473,4.015643983917526
11.003276586532593,4.430553057740487
11.006808519363403,4.160846599147317
11.013450860977173,4.28788357623844
11.02377986907959,3.869258785429252
11.02377986907959,4.0230760442625275
11.034180402755736,4.383514410431824
11.034180402755736,4.207212894350758
11.044303178787231,3.9367347029735247
11.05433201789856,4.179203103059213
11.05433201789856,3.9798386887021775
11.06446409225464,4.062341399676435
11.0745210647583,3.8554936253758347
11.0745210647583,4.229572000738034
11.084955215454102,3.8774392243233264
11.095256328582764,4.078607208286509
11.095256328582764,4.208078549676442
11.106852293014526,4.27808618291129
11.115500211715698,4.217521669149553
11.115500211715698,3.9267896840510272
11.125913619995115,4.252605125102523
11.125913619995115,4.221973419864591
11.13616943359375,4.282779216474067
11.13616943359375,4.115363486502845
11.14624524116516,3.9137257068382953
11.14624524116516,4.288932725689002
11.15840983390808,3.9101352119774413
11.15840983390808,4.243296210434016
11.1664137840271,4.091912689038501
11.1664137840271,4.0699658765344005
11.176755666732788,4.032281515215139
11.176755666732788,4.265846471212466
11.186863660812378,4.415219879686028
11.186863660812378,4.082310122812063
11.197238206863403,4.066664494493284
11.207013130187988,3.924491002557714
11.207013130187988,3.982666782164707
11.21703052520752,4.334544992427039
11.21703052520752,4.077660398507244
11.2275288105011,4.010180823081687
11.2275288105011,4.17354042932888
11.23681378364563,4.214132676722361
11.237822532653809,4.287549976846316
11.247878313064575,3.964136668327385
11.247878313064575,4.342434291224038
11.258161067962646,4.090047490837844
11.258161067962646,4.0759188058173175
11.268606662750244,4.355787450896741
11.268606662750244,4.295125270616936
11.278661489486694,3.9045918794367593
11.278661489486694,4.020728059367428
11.288733959197998,4.2572047856831725
11.288733959197998,4.363466897979822
11.2988703250885,3.941697405929439
11.2988703250885,4.202789773943999
11.309154033660889,4.206566114324974
11.309154033660889,4.175231155952685
11.319512605667114,4.025994555430584
11.319512605667114,3.980589612881998
11.329997301101685,4.064869834246798
11.329997301101685,4.182424195983043
11.340370178222656,4.201538250458917
11.340370178222656,4.113274345362666
11.350580215454102,4.275683487384134
11.350580215454102,3.9179150129248366
11.36077642440796,3.9708476161196447
11.368148803710938,4.159227854936606
11.370992183685305,3.9739803411854973
11.370992183685305,4.317235724305649
11.383650064468384,4.24753707626173
11.391273021697998,4.014311724719503
11.391273021697998,4.329100436141253
11.402052402496338,4.0766581179422445
11.407654047012327,4.141657528343686
11.411512851715088,4.004205956322651
11.411512851715088,3.9250821470412776
11.42239475250244,4.096893111134535
11.42239475250244,4.374320182873206
11.43183970451355,4.372998485591586
11.441983699798584,4.364315691383861
11.447267293930054,4.1019380169876465
11.45230507850647,4.192398516511052
11.45407748222351,4.299128567988207
11.462511539459229,4.147847813317505
11.463664054870604,4.317367661779983
11.472578287124634,4.414209985717499
11.47404146194458,3.9519217183097837
11.47404146194458,4.150611993257208
11.483994483947754,3.8692631041118224
11.483994483947754,3.928600711065464
11.492711305618286,3.996059644108742
11.500327348709106,4.396574363253702
11.502723455429075,4.13996791596068
11.507607460021973,4.371778564992871
11.512794017791748,4.001290769193407
11.512794017791748,4.19396744397564
11.52303957939148,4.151873459661958
11.52303957939148,4.199960680330389
11.53426432609558,4.145465004061013
11.53426432609558,4.209579875300641
11.543516635894775,4.4179640320085
11.543516635894775,4.0005945615309395
11.553606748580933,4.468532670534546
11.553606748580933,4.216904755583812
11.563701868057253,4.370695871985376
11.563701868057253,4.3198303676600345
11.57382106781006,4.044357985000444
11.57382106781006,4.071396644617287
11.58390736579895,3.9216245297661785
11.58390736579895,4.325644419549572
11.59393310546875,4.231382793745518
11.600119590759276,4.130160714104942
11.604423999786375,3.9485417228460347
11.607810020446776,4.008463328580178
11.6144700050354,4.166680317511429
11.6144700050354,4.040430039276744
11.624582767486572,4.39880492948314
11.624582767486572,3.938979829111181
11.635434865951538,4.394505422766708
11.635434865951538,4.2229229621736595
11.644657135009766,4.051187510973521
11.646666288375854,4.184695084754975
11.654689073562622,4.1263627481754686
11.656701803207396,3.84717479935443
11.664913654327393,4.006015297201112
11.664913654327393,4.232157832847907
11.676052331924438,4.3665453527589575
11.676052331924438,4.25171010222512
11.685247421264648,3.9625649478172265
11.685247421264648,4.113492308610581
11.695818185806274,3.8955317790147723
11.708260297775269,4.024674451458226
11.708260297775269,4.218630369474367
11.71619462966919,4.144048166846317
11.726287603378296,4.081241055947004
11.726287603378296,4.155435193324582
11.736457824707031,4.139330128553232
11.74660849571228,4.037792775323584
11.74660849571228,4.4239602978359445
11.756715059280396,4.053825871543984
11.756715059280396,4.310445843672409
11.76710081100464,4.081809058666901
11.76710081100464,4.327087751082882
11.777167081832886,4.183216267634167
11.777167081832886,4.325163917445313
11.777167081832886,4.244913700801237
11.787528038024902,3.9764291197328743
11.787528038024902,3.8754135914878196
11.801985263824465,3.9231792069510703
11.805996656417848,3.9204238013363213
11.812015295028688,3.921019069713699
11.818223237991331,4.132104545190792
11.818223237991331,4.287670103163349
11.828305006027222,4.170732431837982
11.828305006027222,3.9881388689971304
11.838449954986572,4.128233317125237
11.848581075668337,4.237656271670868
11.848581075668337,4.089408674947353
11.85888147354126,4.067026409082273
11.869024515151978,3.9444394190790453
11.871119022369385,4.304680767096473
11.879378080368042,4.135479321443815
11.879378080368042,4.170399291837499
11.889812231063845,4.189056342936501
11.900171041488647,3.9531029240793885
11.908137321472168,3.862599964245968
11.910433769226074,3.905085846875037
11.920942783355711,3.9257481684697835
11.92185115814209,4.1974731932686655
11.931131839752195,4.017599005023748
11.931131839752195,4.173526999291862
11.941352367401125,4.328307073867551
11.941352367401125,4.010034172099289
11.95148539543152,4.176956216271218
11.95148539543152,4.3876340176643165
11.961631536483765,4.258658469373404
11.961631536483765,4.2951131292347835
11.972088098526,4.177442696159907
11.972088098526,4.118333292666888
11.982329607009888,4.19942300539537
11.982329607009888,4.346636704782126
11.992501735687256,4.3325649006251625
11.992501735687256,4.0159360938411774
12.002675771713257,4.134576223759086
12.008265495300291,4.314877466496564
12.017136812210085,4.063390020516945
12.017136812210085,4.447246787601916
12.023163557052612,4.163145903314434
12.023163557052612,3.9699321879433698
12.033223390579224,4.4236090210762855
12.033223390579224,4.237227023018667
12.043702125549316,3.9511891751937456
12.043702125549316,4.269472517753545
12.054022312164308,4.241501214444253
12.054022312164308,4.0552128104358465
12.064290761947632,4.1243239850853355
12.064290761947632,4.397095180145992
12.074838638305664,4.224598391836829
12.074838638305664,4.329033146924763
12.08490252494812,4.378691503650993
12.08490252494812,4.203617546190901
12.095123291015623,4.102032289158807
12.095123291015623,3.9896103296504153
12.105621337890623,4.360469709860139
12.108332395553589,4.211107266840188
12.115992546081545,4.071569809610845
12.115992546081545,4.0337535140456025
12.126485109329224,4.340782955111781
12.126485109329224,4.3060848221676356
12.13684582710266,4.020640657187285
12.13684582710266,3.9863991059882147
12.147277116775513,3.9300852724109854
12.147277116775513,4.357804126865531
12.15762996673584,4.184685836726883
12.15762996673584,4.259700750001597
12.167896032333374,4.093657292081646
12.167896032333374,4.259207240294105
12.167896032333374,4.190413434344846
12.17814874649048,4.310731222184697
12.17814874649048,4.327909364357452
12.188345193862917,4.005687338075945
12.188345193862917,3.935626758343117
12.198648452758787,4.003327542855104
12.198648452758787,4.025914951721125
12.20851230621338,4.013948115631532
12.20851230621338,3.976687476178642
12.218615055084229,4.085365927492048
12.218615055084229,4.230954485168539
12.229190587997437,4.096485862759376
12.229190587997437,3.959621107220185
12.239377737045288,4.075508628408782
12.239377737045288,4.304699273681831
12.24944019317627,3.9599491044593025
12.259613275527954,3.9533866703603886
12.259613275527954,4.348744785020764
12.27000856399536,4.263966356397694
12.278427839279177,4.415395385705931
12.280179262161257,3.9791526288299286
12.290546894073486,4.020344041662702
12.290546894073486,4.292605615019776
12.300767421722412,4.078088410551395
12.308790922164915,4.035134836683151
12.310800075531006,4.2728512386755835
12.310800075531006,4.126057187903303
12.321175813674929,4.218856868216943
12.321175813674929,4.022057123897729
12.33132791519165,4.05587065956426
12.33132791519165,4.167295905377498
12.34173345565796,4.097032874986648
12.34173345565796,4.301208518842005
12.352204084396362,3.9659217844694132
12.355716228485107,3.8908024557932204
12.363324880599976,4.2480604387953
12.363324880599976,4.360640877498311
12.372411012649536,4.189202136607649
12.376436710357666,4.325110332150556
12.378447532653809,4.118878202648675
12.383663177490234,3.965703372699503
12.383663177490234,4.4065920719156635
12.392923831939695,4.151291468202023
12.392923831939695,4.192680943004379
12.409026861190796,4.300097870214349
12.41356325149536,3.9241219071982907
12.41356325149536,4.215497563244716
12.423983573913574,4.347868415935315
12.423983573913574,4.0008658233982635
12.4360454082489,4.200250426503639
12.43956208229065,4.353951576449195
12.444372177124023,4.03459447509461
12.4544837474823,4.180351031133246
12.4544837474823,4.349160884681055
12.464673280715942,6.3872946718298245
12.464673280715942,4.7539012341557365
12.474924087524414,3.5758766185866158
12.474924087524414,4.34711407660284
12.48517918586731,4.2090256955580925
12.48517918586731,3.25554538952905
12.49527144432068,3.411473299865449
12.49527144432068,3.1048577079536863
12.50530481338501,3.694055485097501
12.509094476699827,4.065941365265834
12.515558242797852,4.810319512769902
12.515558242797852,4.5149596931007
12.525952339172363,3.899615094740675
12.525952339172363,4.194404041922689
12.536155462265016,5.0923237192947255
12.536155462265016,4.447837437095588
12.546361684799194,4.175443592666984
12.546361684799194,4.315502380122329
12.55670714378357,4.515022682582889
12.55670714378357,4.693647598694796
12.567153692245483,4.405986067825149
12.567153692245483,8.820147324032128
12.577316045761108,4.465749432991107
12.577316045761108,3.815557141215852
12.587551355361938,5.054680284831338
12.587551355361938,3.481584075521713
12.597697973251345,4.835316051048624
12.60002303123474,3.931523213653065
12.607930183410645,3.5898500428244526
12.609437942504885,4.733616588447757
12.609437942504885,7.247714815777961
12.61798357963562,4.486081356883183
12.622289180755615,4.241828655962891
12.62830662727356,4.951290447812741
12.62830662727356,4.780468511754752
12.6397602558136,4.528875765030936
12.6437828540802,4.7477435274354995
12.650496006011965,4.609958714040617
12.655242681503296,3.8991002544838116
12.658636093139648,4.9463500512926855
12.660882711410522,4.866197584683817
12.66913104057312,5.561873833557758
12.66913104057312,5.27006705442023
12.66913104057312,4.474980598053339
12.679342031478882,5.281389146090573
12.679342031478882,5.633066205389598
12.693012237548828,5.697296122892108
12.693012237548828,4.192907456644266
12.7005455493927,5.442892464101903
12.7005455493927,3.492583084265557
12.709393978118896,5.002063802396783
12.709393978118896,3.0306387090509315
12.719778537750244,3.1429607475351
12.719778537750244,4.387610998102287
12.732069492340088,6.019484245460957
12.734078645706177,3.9324394672541576
12.740203142166138,3.5480652586897623
12.740203142166138,5.601955667887261
12.75022840499878,4.129142704837039
12.75022840499878,5.542893897155326
12.760600566864014,5.007415584646669
12.760600566864014,3.784578695673854
12.770917654037476,3.9422459306131397
12.781099081039429,3.641441376083274
12.781099081039429,6.421211854725391
12.781099081039429,3.6565305433560678
12.791520595550535,3.8414417669070766
12.791520595550535,2.586031935809773
12.801860332489014,4.125303288338901
12.809682369232178,5.690004981186077
12.811988353729248,3.495004991840185
12.81722354888916,4.143107526676407
12.823684930801392,4.105811675881209
12.823684930801392,3.673626437894987
12.835285663604736,3.8429187096943656
12.835285663604736,1.9694742736059683
12.845645189285278,2.373364678398361
12.853512048721312,2.401306760580805
12.859371900558472,4.100973884293047
12.86369800567627,2.5119563596440635
12.866390705108644,2.5392439458296963
12.874855041503906,1.9069450705816104
12.87536334991455,3.003501432662536
12.87536334991455,5.090198599623739
12.885618448257446,3.79546294867229
12.885618448257446,1.802610197048309
12.894253253936768,2.6287797354787497
12.899962902069092,4.051460717710044
12.90427827835083,4.065003227061528
12.91431474685669,2.9267456089023374
12.91431474685669,1.7299160181483444
12.924355745315552,2.9125417982652606
12.924355745315552,3.3357522179808585
12.93468189239502,1.1478665170615694
12.93468189239502,2.2139501203447542
12.945066928863524,4.905934772118064
12.945066928863524,3.7378161125726077
12.95513081550598,1.3623959685434004
12.95513081550598,2.1906501538131495
12.965454816818236,4.876827160958897
12.965454816818236,2.5118602922404345
12.975587844848633,2.3627157026388903
12.975587844848633,1.3342430345625715
12.985978603363035,2.835884985702238
12.985978603363035,2.3520827097517736
12.996021270751951,1.933113211595133
12.996021270751951,2.584656749289927
13.00620460510254,3.917834305520933
13.00978398323059,2.5934427018326502
13.016350746154783,2.1477509884164485
13.016350746154783,2.4878372221082636
13.026568412780762,1.512103301353306
13.026568412780762,1.863043306543972
13.03658890724182,2.016758337987139
13.03658890724182,1.3651734718216677
13.046655654907228,1.7252286739368732
13.046655654907228,1.9803004963315458
13.05676770210266,2.853281047217072
13.05676770210266,2.266671453839307
13.066827535629272,3.553181892405518
13.066827535629272,2.46867586722609
13.076987743377686,2.0722947942882985
13.076987743377686,1.851115772621011
13.087129592895508,1.5451306327669259
13.087129592895508,2.9322408668460658
13.09722900390625,2.579491018320895
13.09722900390625,1.7948429482984736
13.109977960586548,2.8942503838064053
13.109977960586548,4.273150051773898
13.119814157485962,2.9871528675485357
13.119814157485962,6.5502575364320155
13.127557754516602,3.134915211800933
13.137778997421265,3.776844598351643
13.137778997421265,4.825551190042136
13.147876024246216,2.689186960973452
13.158106565475464,3.5477173768531958
13.161243200302124,2.8673796676200705
13.16828751564026,3.6282108077931716
13.178654670715332,4.535507999278499
13.178654670715332,3.5914216775879564
13.188773155212402,2.757643808994562
13.199162483215332,2.7040486805293336
13.199162483215332,3.096057961342976
13.209882736206056,4.155375514018996
13.219501733779907,3.7020451260960052
13.219501733779907,4.818672147148495
13.22956371307373,4.373543917004456
13.23988127708435,3.9741868388389117
13.245450258255005,3.2485721600594695
13.249961137771606,3.8491990602948367
13.26014232635498,5.910003048741071
13.26014232635498,2.7554933279265525
13.270187139511108,2.7566759129889435
13.280446529388428,3.5859445583724847
13.280446529388428,5.291583314633306
13.290587902069092,4.352857592665945
13.290587902069092,3.765751982872948
13.300708532333374,3.4439200149795384
13.300708532333374,4.2206825010317335
13.31305766105652,4.565010135590101
13.31305766105652,3.909358506034815
13.323506116867064,4.540305991393819
13.323506116867064,3.490636257919264
13.331660985946655,4.153466322385073
13.331660985946655,3.5831930990566034
13.341901779174805,3.771032663473192
13.341901779174805,4.7132032427307085
13.35231590270996,4.99103468394243
13.35231590270996,4.4747057469142675
13.362436532974243,5.238814636530422
13.362436532974243,5.9353756226373235
13.372488975524902,3.9796083526829316
13.372488975524902,4.886027549893681
13.384088277816772,3.9413248823414153
13.384088277816772,4.636376887558361
13.384088277816772,4.6919522016482915
13.39274764060974,4.61043948310192
13.401718616485596,4.779111683925937
13.403234481811523,3.4600490340360293
13.410300970077516,5.246111947940204
13.41338586807251,5.158982554032561
13.41338586807251,5.038425177306495
13.42532515525818,4.878730341035595
13.42532515525818,4.870990229122346
13.433961153030396,3.5524147366526475
13.444413423538208,4.216869484415402
13.445266008377075,5.885577017174174
13.454591274261476,4.060340822391598
13.454591274261476,4.0633051276344085
13.454591274261476,8.310215793754372
13.467214345932009,4.6646001960409045
13.467214345932009,4.69036465486494
13.475011110305786,7.95232115116001
13.482739448547363,4.585972433561753
13.485134840011597,5.083893524412223
13.485134840011597,5.3604353037574715
13.495525598526,4.5414809343823395
13.500996828079224,5.384086415519272
13.50502634048462,5.6975856660687505
13.512202978134155,5.84030507400957
13.51506519317627,4.2944453867793895
13.51506519317627,4.183700907869084
13.52556085586548,3.9676001140387593
13.52556085586548,4.875547453657648
13.535604000091553,4.766624878849869
13.535604000091553,3.1476055339267055
13.545889616012571,3.7214792685026445
13.545889616012571,4.889110643880326
13.555962085723875,6.092940973654417
13.555962085723875,5.084505366961991
13.567217350006104,2.8913915509875316
13.567726373672484,3.463051911444512
13.57739233970642,2.6008542382787483
13.57739233970642,2.8469641452886143
13.58726954460144,3.4694875767742843
13.58726954460144,3.1217963069904644
13.597617149353027,4.404459051321338
13.597617149353027,2.915578961313209
13.610026121139526,4.291822306930022
13.610026121139526,3.205347852222308
13.619924068450928,4.489427455047673
13.622943878173828,2.8253959868908978
13.630394458770752,2.564324470061803
13.635286569595335,3.805477108141746
13.640270948410034,2.374050313488109
13.640270948410034,3.9175759616753383
13.6484477519989,5.704619110203556
13.6484477519989,3.0827079442594227
13.658542394638062,4.739871160611369
13.66588544845581,2.7502369862722325
13.668725967407228,2.6322769790185605
13.668725967407228,2.8190752157002983
13.678844451904297,1.777203434398141
13.678844451904297,2.6774690144920696
13.688977241516112,1.9328782571021763
13.690473794937134,3.004144814705307
13.699180603027344,3.7652238177377515
13.701221704483032,4.091801435158569
13.710281133651732,3.1773284693373656
13.710281133651732,1.904292851017329
13.719995260238647,1.8121945336567684
13.721832036972046,2.7190654214523895
13.730142593383787,2.754659058426918
13.730142593383787,1.6154297986989856
13.74059009552002,1.7605664546346573
13.741379261016846,1.1513511943134196
13.750837564468384,2.9940638426162
13.750837564468384,1.5626611447024097
13.750837564468384,0.8531656253035482
13.76097822189331,0.8734430100651203
13.77102518081665,1.504664860504385
13.776739358901978,2.2781942000342474
13.781046152114868,2.301542180007671
13.781046152114868,1.6421180159212734
13.791249990463257,2.2847092809225558
13.791249990463257,3.3149723522290615
13.801610708236694,3.2837586421870197
13.801610708236694,5.138196221232969
13.81192660331726,2.7536189086122165
13.81192660331726,2.502144175708567
13.82204794883728,2.801223415639136
13.82204794883728,3.556201592416798
13.832375049591064,2.891748390890582
13.83953595161438,4.943890836292083
13.842808246612549,1.8627136980097045
13.852867126464844,2.844253094854284
13.852867126464844,2.5310542714038093
13.863067865371704,1.5141173616865455
13.863067865371704,3.5503625642884167
13.87321710586548,2.4042414379541297
13.87321710586548,1.1724689911659394
13.883480310440063,2.929614410764577
13.883480310440063,1.9236725996002395
13.897192001342772,2.352996635778685
13.903887033462524,2.6206620985990488
13.910295009613035,2.1009912813229175
13.915893077850342,2.3069301048824853
13.92417287826538,2.621735651379896
13.92417287826538,1.9904597370943322
13.934410333633425,2.800982769052848
13.934410333633425,3.4130875860307466
13.944432497024536,3.1837008305994554
13.944432497024536,3.1922744951162145
13.95460295677185,3.5619005195520788
13.95460295677185,3.158296899895273
13.964761734008787,2.874705348486849
13.964761734008787,4.464476215451757
13.977094650268556,3.667085665563307
13.977094650268556,2.480652603530169
13.984858751296995,3.3549377931481428
13.984858751296995,2.7535957357699035
13.995423555374146,3.854405388032749
14.005549430847168,3.7076281482614135
14.010262250900269,4.857700835049599
14.015914678573608,3.2972508587647966
14.015914678573608,4.096552538473316
14.026363611221312,6.961531862841302
14.036508798599243,7.170435628454591
14.041391134262083,4.045897614336606
14.04667830467224,3.9140323616161297
14.056809425354004,3.577807797834135
14.056809425354004,5.052985686822442
14.06717014312744,6.208281206751382
14.06717014312744,3.968063423565897
14.077289819717407,3.5680643274858053
14.087584972381592,5.436776365244489
14.087584972381592,6.285730075341314
14.097983837127686,4.807882483772913
14.097983837127686,5.498749298103942
14.110228061676024,6.048307143717768
14.118250846862791,3.3302291193805793
14.118250846862791,4.160028801108307
14.128747940063477,4.23209914972185
14.138877153396606,7.565817709612873
14.138877153396606,6.85587647602328
14.149236917495728,4.012370898918603
14.15313172340393,5.025983787117303
14.159568071365356,3.844449307659974
14.159568071365356,5.156549608447247
14.169687032699583,3.2715887528296124
14.169687032699583,5.8999906533385005
14.179886817932127,3.6340627162630046
14.179886817932127,4.851803465591244
14.190225839614868,3.241785733121686
14.195686340332031,5.69996919075161
14.200482368469238,3.456630283480514
14.200482368469238,8.42959784115895
14.210363149642944,4.923305512296782
14.22062063217163,5.087059926429962
14.22062063217163,3.7529370251348158
14.230854749679564,5.584794854380523
14.230854749679564,3.389834266277604
14.241211652755736,6.41520927029195
14.251410484313965,4.388183936309108
14.251410484313965,4.647733536755982
14.264967918395996,5.422322489543719
14.269962310791016,4.297993565914661
14.274694681167604,4.843396579327228
14.28174090385437,3.6601459880200293
14.285951614379885,3.180485885684351
14.292032480239868,3.636100464991218
14.292032480239868,4.369122305068955
14.302084684371948,3.6396915683682063
14.302084684371948,3.932710842139459
14.31212830543518,4.447066087799913
14.31212830543518,5.16794744569401
14.32225489616394,4.056138631330339
14.333300590515137,2.707112713108216
14.337517499923706,4.581002900501972
14.34309196472168,3.8575489837067956
14.34309196472168,4.734524054514422
14.353291273117064,2.968117141534909
14.353291273117064,4.611042111354802
14.363505363464355,3.9884212402317796
14.363505363464355,4.14920397162663
14.373833656311035,5.805251607064058
14.373833656311035,2.8006913534362536
14.383945941925049,4.122642892435473
14.383945941925049,3.3179185246000564
14.394158840179443,4.049817661899996
14.394158840179443,3.2610570538405934
14.40440034866333,3.37737185685912
14.410849571228027,2.2076577238931177
14.414689302444458,3.7943595747052368
14.424772262573242,3.079874304858737
14.424772262573242,5.368694005627971
14.435240745544434,2.8491564131587253
14.435240745544434,3.0824485373378354
14.445513486862184,2.7562765416770905
14.451217651367188,2.301419183908717
14.455597400665283,2.7871359484380775
14.455597400665283,4.850842363125466
14.46582555770874,3.0089913664666312
14.476003885269163,3.257384936582796
14.476003885269163,3.212473732626594
14.486174821853638,2.48901731008925
14.487272024154665,4.6528630280848535
14.496291160583496,2.634453960084829
14.496291160583496,2.4397285519249934
14.506497621536257,2.828036582404175
14.510931015014648,1.0083397712732687
14.516715288162231,1.2091105224141228
14.516715288162231,4.427661512646612
14.527153491973875,3.0497968902240604
14.527153491973875,2.715036494773667
14.527153491973875,2.3316280171452037
14.539693593978882,1.9723010819500635
14.54300856590271,3.4831947773878094
14.548235893249512,2.666960646241085
14.558547258377075,1.8697820889075318
14.558547258377075,2.966224097335391
14.568886280059814,2.118679352485107
14.568886280059814,2.426508042176107
14.579033136367798,3.7030801317334876
14.579033136367798,2.070624393672014
14.589276552200316,0.5156675744622141
14.589276552200316,2.390412330720245
14.599512100219728,1.7066492993570572
14.603543758392334,2.4136651505004467
14.60835576057434,1.8280082191940341
14.613058805465698,3.549423959259419
14.620332717895508,2.9803871361149894
14.620332717895508,4.0617876738906675
14.630438327789308,6.062551224292153
14.630438327789308,2.207739656777686
14.630438327789308,4.942004987856495
14.640516519546509,2.845886347776426
14.650735139846802,5.1252180995709455
14.650735139846802,2.601243663181606
14.660941123962402,1.779537626147312
14.671033143997192,3.0189333794230127
14.676132917404177,1.6578572275862782
14.68135929107666,1.987264097531622
14.68135929107666,2.5212465328158515
14.687562227249146,1.97818715796822
14.691953897476196,3.6936550848952105
14.701608657836914,3.2439571361927477
14.701608657836914,4.481098811155018
14.712160587310793,1.9141858027769036
14.712160587310793,3.250291920619622
14.722513914108276,2.588297411647676
14.731053829193115,3.0707691969735844
14.73280954360962,3.147414480527063
14.743123292922974,4.473221986896314
14.743123292922974,4.625525893122625
14.753166913986206,3.5596726821939364
14.763360023498535,3.2357508727140143
14.763360023498535,4.047273514294445
14.773821115493774,3.2853068452892042
14.773821115493774,2.8998291009280206
14.784021615982056,3.6152525929907315
14.784021615982056,3.596332403392279
14.794211864471436,5.106756609865384
14.794211864471436,2.998860823566562
14.80455231666565,3.3367213731439413
14.811432123184204,4.7832872140661
14.814759969711304,3.933598220075394
14.82479763031006,5.226047508568074
14.83503532409668,4.380725534460096
14.83503532409668,3.8930807640869673
14.845528841018677,3.9203810378799036
14.850263833999634,4.43336589105132
14.855972528457642,3.471337149017423
14.866550207138062,3.5807476277435595
14.866550207138062,3.897687938061846
14.877074480056764,6.045314863041964
14.877074480056764,2.7245442767785892
14.887385129928589,4.256740217019414
14.887385129928589,4.083661322476117
14.897764205932615,4.249323703805501
14.897764205932615,3.30468081944281
14.91146993637085,4.112573195355546
14.91146993637085,6.061663540752497
14.918323516845703,5.035624629702966
14.918323516845703,5.810570071918267
14.92849898338318,5.416825772331795
14.92849898338318,3.6279687054741205
14.938547372817991,4.382788475063408
14.938547372817991,4.217483934241609
14.949026823043823,5.600315853912195
14.949026823043823,3.8923739490753335
14.959561586380005,4.8129564011290045
14.959561586380005,3.565233480936781
14.969705820083618,5.4130854156622625
14.969705820083618,3.849285155675123
14.980040073394775,5.069800737054018
14.980040073394775,4.841201583896584
14.99013328552246,5.630695070145167
14.99013328552246,3.920223703451106
15.000402450561523,4.0853785002294485
15.000402450561523,6.352915596165306
15.011759996414185,5.16317074579704
15.011759996414185,3.3143359862249446
15.020965099334717,5.07639526764692
15.020965099334717,4.829185300431933
15.031140804290771,6.630364881411048
15.031140804290771,4.417850885132086
15.041401863098145,3.8508466050736176
15.04623794555664,3.80583677605911
15.053156614303589,5.55336198641945
15.056732892990112,3.347596076060377
15.061344623565674,4.647751474939436
15.061344623565674,3.858855652538081
15.071455717086792,3.570195801869035
15.071455717086792,4.228482140600488
15.081470489501951,4.318398503117448
15.081470489501951,4.315662053733871
15.09169864654541,3.5325172419053166
15.09169864654541,4.2796729317680615
15.101850986480711,6.254052969427056
15.101850986480711,3.128765151519869
15.111266136169434,4.691145425108064
15.111778497695925,4.367179437334909
15.121920347213743,3.0969160927379566
15.121920347213743,3.4790339099146856
15.132268190383911,4.276927795745974
15.132268190383911,4.347854053017701
15.142305135726929,4.2844439698228
15.142305135726929,3.970754651100278
15.154772281646729,4.36412478222965
15.154772281646729,2.304796532182172
15.163262128829956,2.9806318852829166
15.163262128829956,3.5733800427686853
15.173349380493164,3.3517350211298136
15.173349380493164,3.2683129677149605
15.18366289138794,2.23587335225338
15.18366289138794,2.5827504296713286
15.194157123565674,3.072045921843138
15.194157123565674,2.8738771415105386
15.204506874084473,2.5989742559104507
15.204506874084473,3.6895879105262064
15.2146577835083,3.084368716926872
15.2146577835083,2.0782595011911305
15.224788665771484,3.2274696037641255
15.224788665771484,2.496415803863183
15.23490834236145,6.148997917149874
15.23490834236145,3.21315784423113
15.245084762573242,2.636508869180854
15.245084762573242,1.909462243884674
15.255114793777466,1.7458520473320753
15.255114793777466,1.7239351970459433
15.265334367752075,3.1283587226113476
15.265334367752075,4.084487474761115
15.275532007217407,1.6941119441891348
15.275532007217407,2.1913088873898694
15.275532007217407,1.6656395728400482
15.285783052444458,2.2198636198453827
15.285783052444458,3.1483045300559853
15.295914888381958,2.3062426726896192
15.295914888381958,3.190212004231368
15.306402921676636,1.8538858566845096
15.312275171279907,0.8094138472733264
15.31659722328186,3.224356863619541
15.31659722328186,2.0916397785613627
15.326821327209473,2.044905069004999
15.328969717025757,1.087168668340676
15.337208032608032,1.7002489095529554
15.337208032608032,3.3461682859599615
15.347688674926758,3.8624316592522914
15.357948064804075,1.9263548701457454
15.357948064804075,1.5639345188362948
15.368229150772097,1.35278212162996
15.368229150772097,4.856294608660958
15.378697633743286,2.716484884557632
15.38879370689392,1.82948961068265
15.38879370689392,1.3001833354464547
15.399013757705688,4.109977236972252
15.399013757705688,2.3927601177297824
15.412291765213013,2.3431354898205505
15.412291765213013,3.3252683636863685
15.419674396514893,1.5415968566429783
15.419674396514893,3.10352542071728
15.43025040626526,1.3636294244417553
15.43025040626526,5.350694901725919
15.440435647964478,1.6271214880431575
15.440435647964478,2.2135025470998344
15.450700044631958,4.587224207174922
15.450700044631958,2.7177244784998287
15.461084365844728,2.2143255606052534
15.461084365844728,1.6600253637956794
15.473477602005005,3.5610540095419285
15.473477602005005,4.105646084726623
15.483686447143556,3.2014606453528134
15.486898422241213,2.468172969505887
15.491769313812256,2.1028294204801825
15.49782919883728,3.2002568811025833
15.501827239990234,3.2115103556066678
15.501827239990234,2.693944204433649
15.514148950576782,6.25625491557101
15.514148950576782,3.9005040024450786
15.522263288497925,3.2171108545509717
15.522263288497925,4.62320213777951
15.53252124786377,4.034821457051436
15.537557125091553,2.508451973602178
15.54293966293335,4.663206916072637
15.545459747314451,3.888202844148516
15.549627780914308,4.2597518980860345
15.55298662185669,5.020996924347542
15.55298662185669,3.93656291352222
15.56348967552185,3.822263270812707
15.567511796951294,2.7496647014455124
15.573929786682127,2.747467509559377
15.573929786682127,5.906002170242788
15.584482431411743,3.232601876375524
15.587893009185793,2.7579191540786305
15.587893009185793,4.645478597248459
15.59497594833374,4.570402735921711
15.59497594833374,5.0251351997256695
15.6050226688385,4.550641966455053
15.61258029937744,5.340376016882193
15.616877317428589,3.9586435090979104
15.618849992752075,3.8287531591875887
15.626996755599976,4.223698260551493
15.626996755599976,3.9360858989556275
15.635977029800417,2.6747223041900563
15.635977029800417,4.853657591705964
15.64605188369751,3.72365680193548
15.64605188369751,5.370057004648865
15.65612006187439,4.33006112143881
15.658131122589111,4.379193826803701
15.66614055633545,3.62842148442216
15.66614055633545,5.419270089099048
15.679263353347778,4.763639244433015
15.684877157211304,4.206342776854335
15.686633586883543,4.112025350233515
15.686633586883543,3.9187327652169186
15.696783065795898,3.457713443898284
15.696783065795898,5.396001510812439
15.707421779632568,4.602383459876293
15.713924169540403,4.70803270991529
15.717740058898926,4.771055231540681
15.722193241119385,4.578973818912873
15.727599620819092,4.78365082561126
15.731645107269289,3.90038297182185
15.738102436065674,4.953287537096241
15.740116596221924,5.564032188971439
15.748237371444702,4.071195253369072
15.754217147827148,5.228763203961805
15.75825047492981,5.904826479394602
15.75825047492981,5.842514346637605
15.768280267715454,5.159726408034218
15.768280267715454,5.867688734757676
15.768280267715454,4.23257074841407
15.778319120407104,4.976284781907898
15.778319120407104,5.189373432887312
15.788505792617798,4.543628580663456
15.788505792617798,4.969486062932342
15.798639059066772,4.842165745508311
15.798639059066772,3.7284639729542257
15.8088276386261,3.8821172558791046
15.812760591506958,3.5120036788990046
15.819011688232422,7.299066579935511
15.82904863357544,3.3038285607932334
15.833169221878052,4.027441205051665
15.83937668800354,4.772438621866256
15.84951949119568,7.580942708746428
15.84951949119568,2.860901690651838
15.86002254486084,4.117584222868139
15.86002254486084,3.81655479964074
15.870115041732788,3.602241816938742
15.870115041732788,4.5835736134200245
15.880223274230955,6.651371715087086
15.880223274230955,3.949797741932969
15.890294075012209,4.713755180161414
15.890294075012209,3.251153607779867
15.900543451309204,4.4341856337429935
15.900543451309204,2.9284647450578385
15.91063356399536,3.2301788929383104
15.912741899490356,4.494950204960674
15.920945405960085,2.572856469219661
15.920945405960085,3.8776545152222126
15.931390523910522,3.5455608640175456
15.941642045974731,3.933575973303485
15.941642045974731,2.5905663130226766
15.9516704082489,3.244399812544082
15.9516704082489,3.8154029760853443
15.961697101593018,2.6747992215437777
15.961697101593018,2.8053861998249308
15.971709966659546,3.165112897397552
15.971709966659546,3.6369676400224433
15.98040533065796,1.5044388077738233
15.982163667678831,1.6663560280435061
15.982163667678831,1.8442168833249617
15.992431163787842,3.2011664101834194
15.999985456466677,2.9777986044424103
16.00285243988037,2.350034295293472
16.00843906402588,2.5961144115362838
16.012749433517456,2.1134061178682733
16.012749433517456,2.5817680219621155
16.012749433517456,2.580545990220451
16.023995876312256,1.523430379378025
16.023995876312256,2.8054342469487454
16.035415172576904,3.258686315225831
16.035415172576904,2.680375216493882
16.04326319694519,1.6023609464087216
16.04326319694519,4.77569781867289
16.053293228149414,3.1602972758411534
16.057708740234375,1.416787538529591
16.057708740234375,2.8148648898261546
16.063398122787476,2.5258479551262694
16.063398122787476,2.924801418051205
16.076603412628174,2.3980110251376923
16.081018209457397,1.8640202411033935
16.08541989326477,1.8301814424515133
16.08541989326477,2.641596909715399
16.09521722793579,1.5424399493798362
16.09774112701416,2.351897857945522
16.09774112701416,1.7665396387987709
16.104190826416016,1.5680715964840382
16.11299967765808,2.046660782382289
16.115817546844482,3.9545125944153146
16.115817546844482,5.903486679413355
16.1256046295166,2.674581098649746
16.1256046295166,2.805030923876585
16.134942293167114,2.0341361180458093
16.134942293167114,0.9579232214427357
16.14504647254944,1.483461782357661
16.14504647254944,2.6902712081030997
16.15506410598755,3.598606398099381
16.15683126449585,4.202870424702956
16.16513752937317,1.6367167305694803
16.16513752937317,1.5030234187597569
16.175519227981567,4.214667250167332
16.175519227981567,1.8747169875570908
16.185681343078613,2.3397275573840965
16.185681343078613,2.7752069663096983
16.19582509994507,1.522284919545724
16.19582509994507,4.188854414515252
16.206807136535645,4.164317005201855
16.2130024433136,2.7049210948518683
16.216331481933594,5.913506219511527
16.216331481933594,3.0983347603955167
16.226638793945312,4.139631985853326
16.236788988113403,4.683613444244739
16.236788988113403,3.4283122933000953
16.24692416191101,4.084352239809934
16.24692416191101,3.226339691013158
16.257328510284424,3.9235093095431597
16.257328510284424,3.694147698170927
16.267428159713745,3.886682155764488
16.267428159713745,3.795104437185206
16.277594566345215,5.688931164305944
16.277594566345215,4.6733978001011005
16.287646532058716,3.1586572166983933
16.287646532058716,3.4112565918718833
16.298056840896606,5.904658527880251
16.298056840896606,4.986482739158895
16.308069705963135,4.115260827893439
16.31319808959961,8.04751751915207
16.318256616592407,7.1539212518873665
16.318256616592407,4.15067028018205
16.32860493659973,7.049577937217734
16.33424139022827,3.0455355995546953
16.338650226593018,3.191104872515023
16.338650226593018,3.555555949038431
16.34890389442444,5.037601902506958
16.34890389442444,4.315080160654427
16.358901262283325,5.57253190351857
16.358901262283325,4.97015729722806
16.369133234024048,4.3791702549322205
16.369133234024048,3.5973907473617883
16.379196643829346,4.3125609582147675
16.379196643829346,3.8007448602255454
16.389496088027954,5.261497873382057
16.389496088027954,5.117721044940757
16.39987826347351,3.8739331900742244
16.39987826347351,4.771568799891681
16.409929752349854,4.997134799084764
16.41329598426819,4.769062135884733
16.420105457305908,4.530218061041836
16.420105457305908,3.4921186548054424
16.430133819580078,3.8953560291387075
16.430133819580078,4.188166884109916
16.440653562545776,3.7794332001473707
16.440653562545776,5.36344174112412
16.451454639434814,4.802600459834486
16.451454639434814,5.159906650093308
16.464098930358887,3.916478622693121
16.464098930358887,5.4323386438531145
16.470995664596558,3.7949022367663328
16.470995664596558,4.063246726837915
16.48100447654724,4.235508573801208
16.48100447654724,5.4303395672495824
16.491312742233276,4.295763639644035
16.491312742233276,4.907116788808315
16.491312742233276,5.491081935351579
16.501553535461426,4.262356255550821
16.501553535461426,3.6372143375235018
16.513177633285522,3.230384391163132
16.513177633285522,3.8734887237248072
16.52179741859436,4.812922701192685
16.52179741859436,4.393145743729162
16.532204389572144,2.997821812531197
16.532204389572144,4.930090087127221
16.542314291000366,5.201689307994188
16.542314291000366,4.0966323592266365
